29.125	29.125	29.0
-18.0002399223	-18.1252399223	-17.9229856737
15.8701925388	16.3224467874	16.0510071631
5.11280564262	4.68685752113	4.68755338086
3.62462826195	3.63869487308	3.90156221757
6.07589608912	6.33250521136	6.20218689051
5.71390778472	5.4985489227	5.40085979075
5.40366471674	5.34695264582	5.49302613507
5.27173127731	5.60981544045	5.41691635683
5.76637638237	5.40150366455	5.48061676654
5.24115000718	5.43912899156	5.63202526049
5.59071068778	5.67356421279	5.24443662634
5.5648157565	5.22163367193	5.62242563278
5.39382061829	5.75580221282	5.4304967425
5.5483315638	5.35145995346	5.46469973309
5.49108432143	5.53359219121	5.48368900832
5.36400096335	5.38002924602	5.47068787878
5.70234250292	5.56353210342	5.4718753117
5.35005136988	5.42958797508	5.47333365454
5.41961908968	5.60159924352	5.47294448183
5.57840078943	5.4026965994	5.47300251266
5.4164941393	5.41400023799	5.59766780996
5.60373687011	5.69534912538	5.27074392991
5.40408047288	5.09316270533	5.61935121128
5.53828580398	5.82757732852	5.42440830287
5.36828115734	5.28594092699	5.34310596098
5.69158418204	5.51267444752	5.56103211326
5.35345843995	5.48832057297	5.52581837249
29.0	29.125	29.0
-17.9229856737	-18.0002399223	-17.9229856737
16.0510071631	16.1201925388	16.0510071631
4.81255338086	4.70829714543	4.81255338086
3.82430796898	3.79250751054	3.82430796898
6.14637226621	6.18126711546	5.89637226621
5.49885780392	5.68287121721	5.90336630111
5.56478605233	5.14661344605	5.14690680374
5.34574432002	5.61945677623	5.64488179087
5.55779940284	5.43377925331	5.29595672175
5.52396799715	5.61608987509	5.6279024901
5.33729809128	5.38366782642	5.40367803275
5.70567288765	5.54320854967	5.59862940134
5.35652312911	5.37316723341	5.28648757763
5.54082520397	5.56313829485	5.61286059449
5.50113241041	5.55551924112	5.4232608046
5.36144402997	5.39975122791	5.34486272921
5.57658392023	5.54872335538	5.68569114793
5.552954499	5.36540044519	5.32344911783
5.14796665029	5.69085211557	5.52034522215
5.82928210257	5.35393701235	5.47840924725
5.39967027935	5.42014636352	5.46200279234
5.31411472177	5.5779456062	5.47579268631
5.63547816117	5.41636547333	5.47364363293
5.53566122909	5.47874250305	5.47242693677
5.39279915506	5.60653120221	5.47286344576
5.55434521994	5.3917057465	5.47280051485
5.36529426579	5.41672922437	5.59810241567
29.0	29.125	29.0
-17.7979856737	-18.1252399223	-17.9229856737
15.9737529145	16.3224467874	16.0510071631
4.88173875656	4.68685752113	4.93755338086
3.59505173355	3.76369487308	3.49705372038
6.31682605637	6.25525096276	6.3700661391
5.63731302887	5.5677342984	5.50623081709
5.26773257957	5.2426964104	5.33698956756
5.42750368252	5.70301498201	5.48711933473
5.57730832911	5.35914426521	5.47964839257
5.44167593833	5.44232778056	5.61930936686
5.58189741271	5.68064386827	5.24847910613
5.40756131673	5.09341217252	5.62339748932
5.54377375085	5.95774551049	5.430026655
5.36461001447	5.20568170387	5.33928404578
5.69175764453	5.45692136774	5.68611937187
5.35422266465	5.58705782365	5.3244553181
5.41986271419	5.53113932407	5.52012274004
5.57777651236	5.27874118701	5.47815670218
5.41662040163	5.75373743714	5.46211096504
5.47866219369	5.21777476961	5.47586067709
5.60649472147	5.6143268005	5.59858260152
5.26674057539	5.43565261304	5.14517099055
5.6189806121	5.5905863974	5.82157750864
5.54997627416	5.40536877708	5.40291251506
5.26600228982	5.41464568305	5.43948800402
5.75505760519	5.69517322207	5.43264672835
5.34421322112	5.34298841209	5.55711441722
29.125	29.125	29.0
-18.1252399223	-18.0002399223	-17.7979856737
16.3224467874	15.9951925388	15.8487529145
4.68685752113	4.91055139402	4.95899300515
3.76369487308	3.77106788624	3.65086635785
6.13025096276	6.15245447799	6.0938280432
5.76998854699	5.63185506452	5.7678073602
5.2212567861	5.23373077583	5.19246499208
5.29920234455	5.56910011629	5.52376265735
5.7898908583	5.56577907022	5.48790981546
5.29238048604	5.17125335859	5.4843734143
5.50417241742	5.80578779429	5.45309196951
5.49050326396	5.27874914141	5.47765406364
5.58862579114	5.52186754337	5.47794943486
5.39450437065	5.48558433676	5.34425606388
5.54352166925	5.58396858258	5.67502916772
5.3691043747	5.27347877603	5.32754211401
5.56564857741	5.74550140754	5.520968202
5.55525076789	5.22159303435	5.47755041123
5.39923660038	5.73961326092	5.46211986906
5.54904344424	5.35784394447	5.47579621109
5.36534691969	5.53468596705	5.59877230791
5.69083722322	5.3784856917	5.27005931318
5.35393624171	5.56375108667	5.49431660083
5.54515125812	5.55469438256	5.62664528465
5.50069468109	5.3994567638	5.32184547779
5.36054529064	5.54898246388	5.53210083178
5.57674226538	5.49058960205	5.59980040772
29.125	29.0	29.0
-18.0002399223	-18.0479856737	-17.9229856737
16.1201925388	16.2532614117	16.0510071631
4.70829714543	4.79111375656	4.68755338086
3.91750751054	3.67049533151	3.90156221757
6.10401286686	6.17261036211	6.07718689051
5.50205659292	5.766789758	5.60311403935
5.44686570781	5.21417713063	5.34658651077
5.4197770692	5.55242384396	5.46535796796
5.48830307622	5.38569331203	5.48541523814
5.62888560729	5.58459835993	5.62114457711
5.36898611512	5.40740162975	5.24732004912
5.42075389583	5.60593046333	5.62334323791
5.70194574134	5.40820538099	5.42991721399
5.33894673967	5.41009472277	5.58967260738
5.54797954195	5.69551660387	5.28138003922
5.5024141291	5.34404534257	5.61732178388
5.4849186792	5.5477563863	5.42331828284
5.37421767091	5.50146108946	5.59352879153
5.57473669108	5.3600512606	5.28161029915
5.42686946282	5.57675014984	5.61654323044
5.60057930648	5.4282008577	5.42330470167
5.40323703802	5.60023320851	5.34378412272
5.41407333624	5.40318495621	5.68607310543
5.69540349494	5.41379932423	5.44858073651
5.0929530657	5.57074921776	5.31798005233
5.95269827473	5.54508911407	5.49983051946
5.08369572038	5.2766992981	5.61585251389
29.0	29.0	29.0
-17.9229856737	-17.9229856737	-17.9229856737
16.1760071631	16.0510071631	16.0510071631
4.73529913226	4.81255338086	4.68755338086
3.76849334468	3.82430796898	3.90156221757
6.11937027938	6.02137226621	6.20218689051
5.64787196978	5.82611205251	5.40085979075
5.29942863982	5.09109217944	5.49302613507
5.60443744034	5.74287980404	5.54191635683
5.41235722223	5.36771663902	5.27836251794
5.43619084827	5.55673045329	5.65346488479
5.54784088847	5.48086066905	5.3982492638
5.5493520313	5.365572138	5.47118753688
5.40712907423	5.58160329116	5.48981903701
5.54643529192	5.54966822505	5.4666147819
5.36473928715	5.39772880234	5.47189071981
5.56671586532	5.55078667169	5.59915083007
5.55586786402	5.36499961804	5.27056579394
5.39876959819	5.4407825647	5.61924847083
5.54910059001	5.75834444897	5.42428146419
5.36537036715	5.25239982986	5.34326473828
5.69086564057	5.59755822552	5.68600341415
5.35390448165	5.37010181284	5.32352033116
5.42015275622	5.68000629438	5.3954446853
5.57796074049	5.35680607985	5.68052543727
5.41635407245	5.54605421629	5.31559087956
5.47874312049	5.37512841611	5.5242735829
5.60653438064	5.5627704721	5.60341470514
29.125	29.0	29.0
-18.1252399223	-17.7979856737	-17.9229856737
16.3224467874	15.9737529145	16.0510071631
4.56185752113	4.75673875656	4.93755338086
3.96594912167	3.92230598214	3.49705372038
6.10881133847	6.09313218348	6.3700661391
5.61617590953	5.6299400157	5.50623081709
5.247494882	5.37052906434	5.46198956756
5.69213429862	5.3633829164	5.28486508614
5.237027688	5.58627396368	5.62608801686
5.77049963428	5.57559080406	5.44586775573
5.33137046688	5.25026260771	5.32093488312
5.41326628224	5.88088998729	5.69009279701
5.71179340187	5.02219020053	5.32914521905
5.08663645398	5.88222315389	5.51660652339
5.95163694225	5.31004633747	5.35336243999
5.21015364579	5.28045606782	5.6651790561
5.45663085433	5.79373576457	5.45409725302
5.58624388825	5.26778334477	5.31968938894
5.53134727138	5.5257699313	5.62373850785
5.27889885522	5.4869247056	5.41357950498
5.7536746309	5.58301281095	5.47085012534
5.21772049205	5.39841904379	5.48489740296
5.61436875273	5.54323220513	5.46932989307
5.56065708039	5.36832224177	5.47193184397
5.38831632128	5.56595129182	5.59845407832
5.55181307433	5.55532627246	5.27084624846
5.36620684653	5.39917835179	5.61926668084
29.125	29.0	29.0
-18.0002399223	-17.9229856737	-17.9229856737
16.1201925388	16.0510071631	16.0510071631
4.83329714543	4.93755338086	4.81255338086
3.59025326195	3.62205372038	3.69930796898
6.32770673975	6.16781189051	6.3486265148
5.63442960608	5.65267044138	5.35241817962
5.26681497444	5.28854795643	5.48822766346
5.55308321102	5.60732086313	5.42779704022
5.37508120622	5.41327482736	5.35273334375
5.58817028313	5.56061131977	5.70836190396
5.53326152078	5.34555951417	5.30083077914
5.15287826286	5.69573693509	5.39945474532
5.83416932283	5.3588817439	5.68604579433
5.27106220915	5.41652140259	5.31198361621
5.5162991211	5.57786782773	5.52424877658
5.49009888811	5.41743220077	5.60429376971
5.58373668171	5.4783763863	5.13403907381
5.27246567252	5.60639795485	5.82431977973
5.74582531181	5.39181229535	5.27890289735
5.22175794489	5.41674958234	5.64120079666
5.739510929	5.69638658559	5.28614499295
5.35780485459	5.34255983064	5.6054980179
5.53473193959	5.54801574075	5.42666292229
5.37848534076	5.50152986571	5.59445676106
5.68873572784	5.36016961515	5.40595282569
5.22744566245	5.57660255278	5.41426717584
5.74815328727	5.55322829407	5.56970737154
29.125	29.125	29.0
-18.0002399223	-18.0002399223	-17.9229856737
15.9951925388	15.9951925388	16.0510071631
4.78555139402	5.03555139402	4.81255338086
3.84832213484	3.56881363765	3.57430796898
6.20826910229	6.04889410229	6.4258807634
5.53385705135	5.86292195058	5.40823280392
5.28697085856	5.26330730422	5.2652296503
5.6880179045	5.32817014904	5.68329137154
5.35552756102	5.64237382606	5.20021150767
5.5714940108	5.55718549576	5.74880625449
5.35317576259	5.24550689189	5.30943027865
5.56622326419	5.76069644326	5.51391213856
5.56078315829	5.22445838996	5.36106831431
5.39598928247	5.73480066862	5.78651324801
5.54907658301	5.35847589194	5.12667332435
5.36616766299	5.53563804649	5.6694282709
5.69048623139	5.50325027576	5.42835433663
5.22891292245	5.48617569794	5.45729060099
5.74745111638	5.37407169379	5.48653911491
5.35426877057	5.69974909245	5.47114560081
5.40897006832	5.34922884517	5.47129045645
5.58153665728	5.42012631873	5.59841848744
5.41742086735	5.57840520453	5.27065730939
5.60292199956	5.29157826991	5.61956632191
5.40420262023	5.80579749326	5.4241337754
5.41323171561	5.25774543117	5.34320811716
5.5706853601	5.5867375278	5.68607210029
29.125	29.0	29.0
-18.1252399223	-17.7979856737	-17.9229856737
16.1974467874	15.9737529145	15.9260071631
4.76411176973	4.75673875656	5.01480762945
3.69450949738	3.79730598214	3.55286834468
6.23450719819	6.17038643207	6.39706812593
5.67678900543	5.56075464	5.23221665123
5.13861618545	5.47478529977	5.67960122867
5.74825780414	5.39518337484	5.28424083871
5.23186308134	5.42637911443	5.65209256001
5.76192284518	5.71883163936	5.30807234988
5.33514436908	5.3197413411	5.58280221863
5.53854963836	5.55205876651	5.43040022535
5.50912677987	5.50707570773	5.47530648845
5.35787881433	5.35654287238	5.47948966105
5.57607425141	5.70157817936	5.47000680276
5.55416729268	5.35185765845	5.47264474988
5.39749300943	5.54420589811	5.47351185987
5.42477845549	5.50102561132	5.5976774257
5.56757723167	5.4856283388	5.27072021597
5.29450700002	5.49962036634	5.61922709163
5.80668387133	5.49723610209	5.42452010195
5.25715950763	5.24589209259	5.4680877826
5.46172338639	5.77601894415	5.48375153665
5.57523906425	5.28078210005	5.34502039391
5.53446898691	5.52436695073	5.67422869269
5.40467368634	5.48522658417	5.32702858884
5.55082819365	5.58376849723	5.39636155526
29.0	29.125	29.0
-17.9229856737	-18.0002399223	-17.9229856737
16.0510071631	15.9951925388	16.0510071631
4.93755338086	5.03555139402	4.93755338086
3.62205372038	3.56881363765	3.49705372038
6.16781189051	6.29889410229	6.4950661391
5.77767044138	5.58341345339	5.30397656849
5.21129370784	5.22893230422	5.48342919186
5.55150623883	5.57998079967	5.4386777236
5.51127284053	5.56289564743	5.47484992096
5.38237123704	5.42033575347	5.50519005024
5.55389597455	5.5268588256	5.57284993193
5.55729457139	5.36940126712	5.27378601131
5.27852232712	5.57147866591	5.62548741893
5.87323604616	5.55235150162	5.42066803196
5.01664567706	5.39879264689	5.34324068879
5.76171832949	5.55003862955	5.68671901637
5.51206968047	5.36504753224	5.32339110468
5.1330076881	5.69074537124	5.52030909949
5.84249988982	5.35399613224	5.35330314029
5.27274601913	5.4201749649	5.66433870844
5.51478735519	5.57792685251	5.32936168822
5.48976920628	5.41635467229	5.52204939806
5.58397619131	5.47875475766	5.35223927011
5.39783916586	5.60653022693	5.66424153535
5.54318978651	5.26670197649	5.32923890087
5.36827302602	5.61898532971	5.64746240808
5.56614821182	5.54998381694	5.27474508604
29.125	29.125	29.0
-18.0002399223	-18.0002399223	-17.9229856737
15.9951925388	16.1201925388	16.0510071631
4.91055139402	4.70829714543	4.81255338086
3.64606788624	3.79250751054	3.69930796898
6.35470872659	6.30626711546	6.2236265148
5.48541544022	5.48061696862	5.55467242822
5.28217238696	5.41805307034	5.34178803917
5.57389858789	5.36876091651	5.47623865135
5.42989838683	5.700420406	5.48253181535
5.62639102998	5.37627469875	5.37022697198
5.38075727793	5.27242555633	5.65240807481
5.41723622404	5.78423851399	5.45549111502
5.5761952913	5.27543986752	5.19960090816
5.54161037853	5.52357209678	5.82276914268
5.40175493275	5.48630862167	5.14210710334
5.42583442554	5.58395782111	5.72255278469
5.56675524346	5.39791956	5.34279525238
5.41930252005	5.54339992567	5.50686119481
5.4796178957	5.3682856424	5.47969779424
5.60598333689	5.56594401627	5.58848915085
5.39168283772	5.55534615999	5.27312979016
5.41665577196	5.39916330687	5.62015790549
5.69662683893	5.54902058073	5.54862798085
5.34244406197	5.36537675413	5.26615738473
5.54799399051	5.69083781933	5.63003029741
5.50157477672	5.35392526701	5.42171323524
5.360156782	5.54515505455	5.46712011859
29.0	29.125	29.125
-17.7979856737	-18.1252399223	-18.1252399223
15.9737529145	16.1974467874	16.1974467874
4.88173875656	4.88911176973	4.76411176973
3.59505173355	3.61725524878	3.56950949738
6.44182605637	6.30369257389	6.43676144678
5.43505878028	5.44753277	5.40534938113
5.16417220387	5.5590699756	5.38931204517
5.78357056858	5.35720453191	5.35661665145
5.40463060891	5.42994310576	5.67393250627
5.34718559538	5.60035936113	5.47672549097
5.61005055743	5.39349796327	5.29706451308
5.5386949823	5.48281741792	5.62770472445
5.27388202902	5.61207857234	5.41907051681
5.75304889354	5.38806970455	5.46726764633
5.21887448396	5.41670766239	5.6098770752
5.61431132794	5.69730806152	5.2679432482
5.56050312697	5.34230317073	5.61812173131
5.38818477945	5.54787427737	5.42488633698
5.55201494025	5.50160363693	5.46836893278
5.49113922322	5.4852078406	5.4837433721
5.36308897453	5.37431289447	5.46977923423
5.70259329708	5.57466468768	5.47212528319
5.35019235381	5.42684662393	5.47347416749
5.41954650983	5.60060864756	5.47287207333
5.57836271537	5.40323776392	5.47296461248
5.41652905877	5.41406249648	5.59770261716
5.60374018378	5.69540719711	5.27074721362
29.125	28.875	29.0
-18.1252399223	-17.5957314252	-17.9229856737
16.1974467874	15.7023132902	15.9260071631
4.88911176973	5.00743461629	4.88980762945
3.61725524878	3.65566482945	3.75512259328
6.17869257389	6.33294735981	6.12562850164
5.6497870186	5.4911822858	5.60791251095
5.28763035131	5.40900759721	5.33570582738
5.48290039163	5.37048528229	5.46824139075
5.61555620166	5.57628375971	5.61133284327
5.41422641598	5.45283997784	5.16831080001
5.3938068445	5.57860161652	5.7982410449
5.70065082442	5.40644644767	5.28196765768
5.34800745192	5.41948644824	5.64719624545
5.54436544284	5.56700963437	5.28278056765
5.50154666798	5.54523544788	5.60542273115
5.36104194	5.40249909407	5.42732917144
5.70134238645	5.54980538965	5.59436067739
5.35084944226	5.3646280568	5.28081787459
5.54452926314	5.56590421055	5.61654542228
5.50118967094	5.55615816263	5.42332355164
5.36052615002	5.3988652707	5.34394810324
5.7018358211	5.549028034	5.6859408226
5.35084232205	5.36534751849	5.32359085187
5.29433328375	5.69089519175	5.5202729088
5.78080212746	5.35390512778	5.35337084911
5.26990694053	5.42014188285	5.6642919588
5.52725300498	5.57796447724	5.32935648841
29.0	29.0	29.0
-17.7979856737	-17.9229856737	-17.9229856737
15.9737529145	16.1760071631	16.0510071631
4.88173875656	4.73529913226	4.81255338086
3.59505173355	3.64349334468	3.82430796898
6.44182605637	6.44662452797	6.02137226621
5.31005878028	5.29917809689	5.70111205251
5.61642645246	5.61930987525	5.29334642804
5.2326224471	5.35854005222	5.47144017974
5.62095146864	5.54311769154	5.49341249874
5.45735509332	5.52651334332	5.49234354919
5.56813330654	5.46382235061	5.44923622109
5.4095271344	5.37792095676	5.47751026782
5.54527088448	5.70505031599	5.47844067133
5.36405761167	5.34581038497	5.46933151869
5.56678523933	5.42009163987	5.59767474136
5.55622791194	5.7042290247	5.27163314291
5.39873278842	5.08909565096	5.61908413227
5.54885484858	5.95211455897	5.42428222469
5.36555847499	5.08436454109	5.34317764281
5.69083438972	5.65922966721	5.68606624513
5.35387222123	5.43970635368	5.32353080356
5.42017123724	5.57983202542	5.52041304424
5.57796215962	5.40868051426	5.47828336421
5.41634996062	5.54052985628	5.46203444875
5.47874343061	5.36705981316	5.47582706752
5.60653534021	5.56683770935	5.59861710693
5.26670407994	5.55527790749	5.14517356914
29.0	29.125	29.0
-17.7979856737	-18.0002399223	-17.9229856737
15.8487529145	15.9951925388	16.0510071631
5.08399300515	5.03555139402	4.81255338086
3.57361210925	3.56881363765	3.69930796898
6.2880134189	6.29889410229	6.2236265148
5.46129687618	5.58341345339	5.67967242822
5.55710415794	5.22893230422	5.13953379057
5.35570739828	5.57998079967	5.62267827564
5.55549550855	5.56289564743	5.43409020422
5.39807751774	5.42033575347	5.36542850038
5.66518658887	5.5268588256	5.6632887582
5.35681185966	5.36940126712	5.32760769224
5.30157450277	5.57147866591	5.52593755163
5.77650267223	5.55235150162	5.47465479829
5.26990429062	5.14879264689	5.46201546448
5.52792785783	5.95454712674	5.60171011707
5.48618154211	5.07216828365	5.27110719229
5.58294667774	5.6626285935	5.61873873188
5.39820811814	5.44084732404	5.42449828526
5.54357992384	5.57922822242	5.46803484648
5.36818664765	5.28344143633	5.48394918587
5.56590005394	5.74286958957	5.46989355052
5.55539289878	5.22081762915	5.47197562935
5.3991637491	5.74011986761	5.47350759984
5.54900500511	5.35783263566	5.47290171318
5.36538203798	5.53477582495	5.59794433965
5.6908406013	5.37829478124	5.27044792135
29.125	29.125	28.875
-18.0002399223	-18.0002399223	-17.7207314252
16.1201925388	16.1201925388	15.9045675388
4.70829714543	4.83329714543	4.86099499199
3.79250751054	3.71525326195	3.82910644058
6.30626711546	6.12545249116	6.01049158282
5.48061696862	5.53086923038	5.7039954753
5.41805307034	5.6228818605	5.29426403316
5.36876091651	5.25540549083	5.34586065124
5.700420406	5.60784511187	5.69563962163
5.37627469875	5.39262955496	5.34584920439
5.39742555633	5.65702217318	5.49787211302
5.58198426539	5.36078302581	5.48219332169
5.42187949182	5.55172469	5.46755359654
5.47513048565	5.37146355604	5.47225432401
5.60651015007	5.56272356813	5.59857686276
5.39258425591	5.55614870537	5.27104972238
5.41647576151	5.39941980979	5.61906189388
5.69629495801	5.54877604235	5.42422696496
5.217627075	5.36546824046	5.59337107269
5.7502934365	5.69078317435	5.28144247336
5.35506168071	5.35396947125	5.6164039568
5.53361036186	5.54513990891	5.42356907623
5.37915733861	5.50068928024	5.46867086826
5.56378365336	5.36055310826	5.48379199402
5.42971468789	5.57673944929	5.47006510465
5.60153178116	5.55329149598	5.47178133834
5.40266088599	5.39778791093	5.34858603156
29.0	29.125	29.0
-17.7979856737	-18.1252399223	-17.7979856737
15.7237529145	16.1974467874	15.8487529145
5.16124725375	4.88911176973	4.83399300515
3.50442673355	3.49225524878	3.85312060644
6.26726965433	6.38094682249	6.0723884189
5.57035158321	5.5033473943	5.61399472274
5.45302393299	5.33607196244	5.34370308798
5.40095022041	5.48769886323	5.33944036283
5.55321432468	5.60467551827	5.56324901524
5.39041833376	5.29210983877	5.55198632711
5.54338096258	5.72197869822	5.35163100505
5.43432233867	5.22637742303	5.52994941555
5.60692203315	5.74511581023	5.59739203107
5.27399317874	5.35422795851	5.2592259612
5.6160413731	5.53450340492	5.62295487411
5.42507427799	5.50448910005	5.42567753159
5.59348942798	5.3612352454	5.46727626532
5.40626843921	5.57596898684	5.48354168449
5.41424386758	5.55335680051	5.4702134154
5.56993566917	5.39778217084	5.47209441729
5.42027961627	5.54987367906	5.59831577495
5.60398017619	5.36525097967	5.27069322028
5.40368266326	5.44092378542	5.61942302823
5.53809264575	5.75827160128	5.42423324696
5.36840973035	5.25236176192	5.34320696287
5.69170281948	5.59759323002	5.68603926138
5.35332193672	5.37010509504	5.32352812936
29.0	29.125	29.0
-17.9229856737	-18.0002399223	-17.9229856737
16.0510071631	16.1201925388	16.0510071631
4.81255338086	4.70829714543	4.81255338086
3.82430796898	3.79250751054	3.82430796898
6.14637226621	6.18126711546	6.02137226621
5.49885780392	5.68287121721	5.70111205251
5.56478605233	5.27161344605	5.29334642804
5.22074432002	5.41720252764	5.59644017974
5.76005365143	5.7052188776	5.29115825015
5.37752837286	5.36539401536	5.63878317349
5.51073970241	5.52530897912	5.40079460996
5.38321711065	5.50564762192	5.59771179622
5.69433631861	5.36548533902	5.28706710613
5.22382739133	5.57310137311	5.6128877202
5.74794740365	5.55321534683	5.4233155251
5.35510403216	5.27386074849	5.34466844841
5.40898005089	5.87661185298	5.68580656566
5.70610369206	5.01653941721	5.32345550924
5.0903357702	5.76090348923	5.52030583962
5.95169923324	5.51236023203	5.35342473098
5.20923552266	5.13310361943	5.66426093297
5.456881776	5.84242744723	5.4543481747
5.58638603401	5.27272301247	5.1948315347
5.53127464713	5.51481689358	5.82592013218
5.27886035833	5.48976993066	5.2671013838
5.75370967555	5.58396528564	5.51932678112
5.21772392156	5.27284289175	5.48969930406
29.0	29.125	29.0
-17.9229856737	-18.1252399223	-17.9229856737
16.1760071631	16.1974467874	16.1760071631
4.73529913226	4.88911176973	4.61029913226
3.64349334468	3.61725524878	3.84574759328
6.44662452797	6.17869257389	6.17518490367
5.42417809689	5.6497870186	5.54987395661
5.41705562665	5.28763035131	5.22766872255
5.50497967652	5.60790039163	5.67560947715
5.36967608041	5.41330195307	5.33517458593
5.59896912031	5.43566604027	5.66924811161
5.53051765829	5.54761948196	5.25272517494
5.40203952081	5.42441272852	5.61254440073
5.55511854501	5.60958399503	5.43266107648
5.36174732598	5.39984086736	5.34051134943
5.56593414244	5.4131899906	5.68543081704
5.55684667722	5.57155761149	5.32438241846
5.1485617413	5.5449668096	5.52012288579
5.82853837131	5.40164966818	5.47833939129
5.27474504637	5.42502393336	5.46198676796
5.51635317197	5.56704440487	5.47585971223
5.61418704244	5.41939774361	5.59862229573
5.38173352332	5.4795458923	5.14515451277
5.41904615247	5.60596049799	5.8215734637
5.6973110518	5.3917121788	5.27791782671
5.21692146976	5.41665649785	5.64174165413
5.75042652725	5.69661599917	5.28620611358
5.35492472636	5.34244776414	5.60555624664
29.125	29.125	29.0
-18.1252399223	-18.0002399223	-17.7979856737
16.1974467874	15.9951925388	15.8487529145
4.76411176973	4.91055139402	4.95899300515
3.81950949738	3.77106788624	3.65086635785
6.1572529496	6.15245447799	6.2188280432
5.62097438113	5.63185506452	5.5655531116
5.23661419861	5.23373077583	5.33890461638
5.44501772141	5.56910011629	5.47532104622
5.76745379031	5.56577907022	5.35811134385
5.27478660859	5.17125335859	5.69750834628
5.57466618773	5.80578779429	5.30376892242
5.37436689381	5.40374914141	5.40017806965
5.68542784429	5.31961329478	5.68558168355
5.35316856521	5.63202396106	5.18696288191
5.54607384112	5.53552697145	5.72640892214
5.37599561479	5.26868030443	5.33306390993
5.56251167403	5.75638209093	5.50962340784
5.43012111342	5.21870961157	5.35541309972
5.60199841871	5.7386956558	5.79019761975
5.40250482575	5.35842347297	5.12673257422
5.41380627267	5.53471309276	5.66851489193
5.69554214435	5.5035404122	5.42860442302
5.34313507132	5.48630255728	5.45743202411
5.54802307951	5.37399517599	5.48646670282
5.50159139976	5.69971541697	5.47110732945
5.35997910513	5.34926337431	5.47132537743
5.57671502097	5.42012890869	5.59842186702
29.125	29.0	29.0
-18.0002399223	-17.9229856737	-17.9229856737
16.1201925388	16.1760071631	16.0510071631
4.70829714543	4.73529913226	4.68755338086
3.79250751054	3.76849334468	3.90156221757
6.30626711546	5.99437027938	6.07718689051
5.23061696862	5.97512621837	5.60311403935
5.69756156753	5.07573476693	5.34658651077
5.27813591651	5.47206442718	5.46535796796
5.52586400396	5.5924079556	5.48541523814
5.51156750168	5.42788470645	5.62114457711
5.43627728545	5.45880850987	5.24732004912
5.47887241441	5.61150697976	5.62334323791
5.60483820759	5.39666630603	5.42991721399
5.2665525734	5.41307282899	5.58967260738
5.74431873385	5.69634649736	5.28138003922
5.34780710598	5.34363619607	5.61732178388
5.53734920763	5.54763321862	5.42331828284
5.50427818394	5.50139898227	5.46852879153
5.36097322976	5.36028057585	5.48386454775
5.5761461542	5.70162063854	5.47010360614
5.55318426436	5.35093703343	5.4717463128
5.39793346973	5.54446241486	5.34858259432
5.54980912118	5.50116677865	5.67519242205
5.4902436981	5.48555469586	5.3264641593
5.23869270961	5.49958220991	5.52115190605
5.90470141348	5.49727144127	5.47781136666
5.20391920538	5.24589532789	5.46201275072
29.0	29.0	29.0
-17.9229856737	-17.9229856737	-18.0479856737
16.1760071631	16.0510071631	16.2532614117
4.73529913226	4.81255338086	4.66611375656
3.76849334468	3.82430796898	3.62274958011
6.11937027938	6.14637226621	6.430679235
5.64787196978	5.62385780392	5.39735212053
5.29942863982	5.23753180374	5.39311307308
5.60443744034	5.69443819291	5.48195472807
5.41235722223	5.36291816741	5.47107160347
5.43619084827	5.56761113668	5.49808326906
5.67284088847	5.47797724627	5.45101671084
5.3470977827	5.36465453288	5.47654549162
5.55356869852	5.58218281966	5.47827100219
5.49799368079	5.54969535076	5.46921568627
5.35994081555	5.39778352285	5.47310268549
5.57759654871	5.55059239089	5.59864107233
5.55298444124	5.36511503577	5.27037358453
5.27285199306	5.5657889561	5.6192471125
5.8769343671	5.55605081785	5.4245029966
5.01670361997	5.39885493788	5.34312420656
5.7608015965	5.54912050642	5.6859987004
5.51232130992	5.36529845392	5.32356520874
5.13314939466	5.690887517	5.52042754
5.8424270978	5.35392350798	5.3532662238
5.27270771956	5.42013646802	5.66429027777
5.51482239833	5.57796189716	5.32939204042
5.48977256986	5.41635810179	5.5220567068
29.125	29.0	28.875
-18.0002399223	-17.7979856737	-17.7207314252
16.1201925388	15.8487529145	15.9045675388
4.70829714543	4.95899300515	4.98599499199
3.79250751054	3.77586635785	3.50185219199
6.30626711546	6.01657379461	6.35918545571
5.48061696862	5.8369927359	5.50911423987
5.29305307034	5.21320875665	5.33790717269
5.5710151651	5.41470795032	5.48653980623
5.4289807817	5.59199004041	5.47962126686
5.62697055848	5.56413059217	5.49425464635
5.38078440363	5.37811890479	5.32592763552
5.41729094454	5.55449862332	5.67909669589
5.5760010105	5.37049882572	5.33202225043
5.41672579626	5.68719937503	5.51756351105
5.60401557275	5.35362836509	5.35276742777
5.40435541871	5.29636888614	5.66514803836
5.41295808972	5.77984075694	5.45404741984
5.57054450798	5.26973887899	5.19488313051
5.54529071387	5.52731133478	5.8258764878
5.40181457871	5.48635627985	5.14213363242
5.42492160145	5.5830356628	5.72158566365
5.56700531499	5.39817507294	5.34324063826
5.41944371615	5.54354166048	5.50688685975
5.47954554136	5.36821223626	5.47961869621
5.60594513916	5.565905592	5.58849045621
5.39171770728	5.55538150529	5.27314927272
5.41665914843	5.39916662721	5.62015731114
29.125	29.125	29.125
-18.0002399223	-18.0002399223	-18.1252399223
16.1201925388	16.1201925388	16.1974467874
4.83329714543	4.83329714543	4.76411176973
3.59025326195	3.71525326195	3.69450949738
6.32770673975	6.25045249116	6.35950719819
5.63442960608	5.45361498179	5.34953475684
5.26681497444	5.4420672362	5.48731005834
5.55308321102	5.55565775259	5.42837656872
5.37508120622	5.40816540484	5.35276046946
5.71317028313	5.57215337787	5.70841662446
5.33100727219	5.34256365679	5.30063649833
5.29931788716	5.6947951874	5.52457016305
5.7857277117	5.35938880073	5.35879793714
5.39126373754	5.4166309549	5.66063810656
5.32492555589	5.57790504083	5.45438302487
5.63365508962	5.41721791319	5.32068655267
5.53437746545	5.47850629248	5.62340721438
5.26824672942	5.60640389021	5.41342072877
5.7567331209	5.39176941565	5.47095232975
5.2189292426	5.41676631307	5.60993533101
5.73839904308	5.69639088934	5.26702971634
5.35849980082	5.21755463241	5.61837224203
5.53476545671	5.75027042984	5.42502770085
5.50350067873	5.3550912191	5.46829638114
5.48630268217	5.53361108624	5.48370517588
5.3740045965	5.37914643294	5.46981416971
5.69971318023	5.56378737925	5.47212863593
29.125	29.0	29.0
-18.2502399223	-17.7979856737	-17.9229856737
16.399701036	15.9737529145	15.9260071631
4.74267214543	4.75673875656	5.01480762945
3.54069685991	3.79730598214	3.55286834468
6.38574529409	6.17038643207	6.27206812593
5.61746671091	5.56075464	5.43447089982
5.26170113663	5.47478529977	5.53316160437
5.55780184406	5.39518337484	5.33268244984
5.37483975435	5.42637911443	5.65689103161
5.58753650322	5.71883163936	5.29719166649
5.40812495407	5.1947413411	5.58568564142
5.60546635255	5.7543130151	5.43131783047
5.28318464669	5.36063608343	5.59972695995
5.61225486833	5.52998448351	5.27720828675
5.4242867441	5.37912240237	5.61639170655
5.5946296766	5.68967084796	5.42439741955
5.40610395489	5.22720808547	5.46859797054
5.41406193897	5.74784060457	5.48355171768
5.56997277078	5.35428834099	5.47013042431
5.42034341211	5.40927074559	5.59685437849
5.60395095438	5.70619991944	5.27128310096
5.40366749998	5.09026319933	5.61935789153
5.53810886623	5.95167615755	5.4244834234
5.36840836359	5.20926513158	5.34291021338
5.69169851372	5.45688249577	5.68614254208
5.35332380059	5.58637510923	5.32357232501
5.42015226195	5.53127838076	5.52037731362
29.0	29.0	29.0
-17.9229856737	-17.7979856737	-17.9229856737
16.0510071631	15.8487529145	15.9260071631
4.93755338086	4.95899300515	5.13980762945
3.49705372038	3.77586635785	3.22561409609
6.3700661391	6.14157379461	6.62076199882
5.63123081709	5.63473848731	5.48958966439
5.13473531897	5.35964838095	5.29729624671
5.75855895903	5.49126633919	5.43898660483
5.35395253284	5.50993732021	5.56768332747
5.55869627096	5.51919665126	5.44337317841
5.35735780268	5.47323349517	5.58270604592
5.6922739838	5.37534093546	5.28206662803
5.35793701307	5.5794148146	5.62127401761
5.54204621058	5.54878413704	5.4201326914
5.37583498564	5.39832366881	5.34398051189
5.68881112784	5.55063500032	5.68691910818
5.35247985437	5.3651736483	5.32311425152
5.29593965922	5.56558978799	5.52025933551
5.78019039677	5.55616677481	5.47845373555
5.26995780225	5.1488621802	5.58703155373
5.52701516125	5.82858947793	5.39852330948
5.48643277547	5.27468864159	5.41781702962
5.58308782944	5.51633513528	5.5704367223
5.39813534098	5.48921149262	5.41962270327
5.54354185129	5.58398866584	5.47887907448
5.36822163304	5.27259665311	5.4811013985
5.56590334389	5.74575631783	5.4689787225
29.125	29.0	29.0
-18.0002399223	-17.7979856737	-17.9229856737
16.1201925388	15.9737529145	16.0510071631
4.70829714543	4.88173875656	4.93755338086
3.91750751054	3.59505173355	3.49705372038
6.10401286686	6.31682605637	6.2450661391
5.62705659292	5.51231302887	5.70848506568
5.24461145921	5.46998682816	5.19054994327
5.5662166935	5.40606405823	5.53556094586
5.43986146509	5.54849569165	5.60944686417
5.62408713569	5.39065978564	5.28117443488
5.37986679851	5.41901474249	5.6000564018
5.54287047304	5.63671315398	5.42943385902
5.37377388762	5.46014856776	5.34809026603
5.68822014106	5.44747134453	5.68219032366
5.35312543223	5.41871379666	5.3236066723
5.42111198914	5.68556084524	5.52149665199
5.57765780198	5.34566857596	5.47786131641
5.41638360676	5.54885046482	5.46191875299
5.47871088698	5.37609752874	5.47594204854
5.60656729665	5.56222284022	5.5986303744
5.39170592703	5.43019021509	5.27013702579
5.41671088855	5.60187112733	5.61931312723
5.69643311299	5.40267603087	5.42436811665
5.34255946484	5.41372046386	5.59329829553
5.5480001549	5.69553647271	5.2814044008
5.50153545193	5.34316352906	5.61643894219
5.48517233936	5.54801132941	5.42357236617
29.0	29.125	29.125
-17.9229856737	-18.1252399223	-18.1252399223
16.0510071631	16.1974467874	16.1974467874
4.93755338086	4.76411176973	4.76411176973
3.49705372038	3.81950949738	3.56950949738
6.3700661391	6.1572529496	6.43676144678
5.63123081709	5.49597438113	5.40534938113
5.00973531897	5.43886844721	5.38931204517
5.96081320762	5.54857809711	5.35661665145
5.08251290855	5.28638690425	5.67393250627
5.68439213068	5.64971857738	5.35172549097
5.41797089858	5.39771690638	5.49931876167
5.58339528725	5.47190960882	5.48126510015
5.41406051859	5.48990727463	5.34251212794
5.53688160392	5.59143583907	5.67432036653
5.36725819654	5.26957309187	5.45255676751
5.56758503005	5.74571615554	5.31926828212
5.43001745909	5.22208630437	5.62383780803
5.60134191011	5.73942663966	5.5384261251
5.40248662248	5.35792812566	5.26897098127
5.41395605388	5.53456555277	5.63104588102
5.5706075971	5.50357068087	5.4209523754
5.54525966767	5.48648629535	5.46718426815
5.40162660303	5.37385695303	5.48429373897
5.42505566584	5.69972373001	5.47022231387
5.56700928652	5.34930206744	5.47191610591
5.41939753577	5.54511027121	5.59827186222
5.60456384555	5.37613508483	5.27081860918
29.125	28.875	29.0
-18.0002399223	-17.5957314252	-17.9229856737
15.9951925388	15.8273132902	15.9260071631
5.03555139402	4.93018036769	5.01480762945
3.56881363765	3.59985020515	3.55286834468
6.17389410229	6.43094537298	6.14706812593
5.66066770198	5.43794220306	5.76172514841
5.28474692852	5.41508980899	5.18446773148
5.48198278651	5.37848254289	5.52756368526
5.61613573016	5.5724827318	5.61324789208
5.41425354168	5.45250190121	5.2815125115
5.393861565	5.57920827073	5.5994497476
5.70045654362	5.40652829388	5.42935201281
5.22312286965	5.41934688794	5.59822982632
5.74662608284	5.6919307713	5.27776068954
5.35506766115	5.34310300842	5.61636411176
5.53449903486	5.54890572724	5.42464642086
5.37889050149	5.50133987971	5.59328827201
5.68865774444	5.35984896095	5.28140649541
5.22753198974	5.57678389865	5.61661582255
5.7480055151	5.55327039176	5.4233579011
5.35418600907	5.27294905572	5.34375046964
5.40923165571	5.87686251886	5.68606197856
5.70624589198	5.01668033211	5.3235965609
5.09026284839	5.76083097991	5.52023237931
5.95166079872	5.51232215335	5.35338660426
5.20927066006	5.13313851979	5.66429621591
5.45688514635	5.84243076863	5.45435140228
29.0	29.0	29.0
-17.7979856737	-17.9229856737	-17.9229856737
15.9737529145	16.0510071631	15.9260071631
4.88173875656	4.93755338086	5.01480762945
3.59505173355	3.62205372038	3.55286834468
6.31682605637	6.29281189051	6.27206812593
5.51231302887	5.45041619279	5.55947089982
5.46998682816	5.43498758073	5.45590735578
5.40606405823	5.558879252	5.27686782554
5.54849569165	5.40847635576	5.62988904478
5.51565978564	5.44649200316	5.44620583235
5.4667604939	5.54493033997	5.44532822891
5.37864428109	5.42337970567	5.4877567022
5.57958620522	5.61015713212	5.47572440364
5.42304389926	5.3999073756	5.46824377533
5.47581216113	5.41322922738	5.59844215925
5.60644077606	5.57135943866	5.27158423342
5.39222420799	5.42008711464	5.61911697764
5.54151257128	5.60390976894	5.54912343439
5.36928645085	5.40354407562	5.14102821553
5.56613284005	5.53824739427	5.83250782957
5.55544345192	5.36838577899	5.2750538463
5.14873708066	5.69165820648	5.39062966027
5.82877953301	5.35335005966	5.56642163336
5.27476681331	5.42015254146	5.51496077781
5.5161971808	5.57788671965	5.37691221548
5.48925006572	5.41654943449	5.65243751133
5.58401552363	5.47863164614	5.13911826628
29.0	29.125	29.0
-17.7979856737	-18.0002399223	-17.9229856737
15.8487529145	15.9951925388	16.1760071631
5.08399300515	5.03555139402	4.61029913226
3.57361210925	3.56881363765	3.84574759328
6.2880134189	6.29889410229	6.17518490367
5.46129687618	5.58341345339	5.67487395661
5.55710415794	5.22893230422	5.27541447396
5.23070739828	5.57998079967	5.41754060426
5.75774975715	5.56289564743	5.57961222339
5.37663789344	5.42033575347	5.44256641775
5.51137395141	5.5268588256	5.45626316371
5.38304995556	5.36940126712	5.48498272042
5.44450645684	5.69647866591	5.47441823691
5.62814799912	5.35009725303	5.34405413929
5.45514419026	5.29523227119	5.67573631637
5.45200912956	5.78110551561	5.45237481316
5.4185415036	5.39462406064	5.19370140253
5.6843529217	5.324815404	5.82618059181
5.34610704704	5.63284513668	5.14231563369
5.5490219099	5.53466747777	5.72167578013
5.37595611034	5.26834180984	5.34299282589
5.56219910579	5.75666082145	5.50700570807
5.55524001064	5.21890653199	5.47964038542
5.39961171102	5.61342845318	5.58844565951
5.54910083095	5.56075470477	5.27316173165
5.36528521301	5.38831499727	5.62016369805
5.69074051628	5.55194601114	5.42361489256
29.0	29.125	29.0
-17.7979856737	-18.1252399223	-17.9229856737
15.9737529145	16.3224467874	16.0510071631
4.75673875656	4.68685752113	4.81255338086
3.79730598214	3.63869487308	3.82430796898
6.17038643207	6.33250521136	6.02137226621
5.68575464	5.4985489227	5.70111205251
5.27253105117	5.47195264582	5.29334642804
5.41662299914	5.40756119185	5.34644017974
5.5801917519	5.54794328885	5.69566674733
5.56759354346	5.39068738043	5.3459039249
5.12906363562	5.66876574119	5.49767783222
5.83348231251	5.35751435532	5.35730873942
5.27965241922	5.42566454144	5.66981423654
5.51270367022	5.57423622122	5.32577531718
5.48912184023	5.41654473287	5.64703395761
5.46006581501	5.47951413555	5.15085208602
5.47448374968	5.60626796575	5.81043057177
5.59918049362	5.39161542224	5.28067130268
5.27027144035	5.41678364283	5.64273113986
5.74436303923	5.69645512559	5.28566127331
5.3468906859	5.34252977355	5.60549585165
5.5376040382	5.54799985484	5.4263979068
5.50441877178	5.50154629835	5.46978282321
5.36090009504	5.36016847391	5.48309697726
5.576108095	5.70159812335	5.47003159215
5.55321941085	5.35097585944	5.47176601948
5.39793672565	5.54446081437	5.4737648209
29.0	29.125	29.125
-17.9229856737	-18.0002399223	-18.1252399223
15.9260071631	16.1201925388	16.1974467874
5.13980762945	4.83329714543	4.76411176973
3.47561409609	3.46525326195	3.69450949738
6.34125350164	6.52996098835	6.23450719819
5.45521466439	5.48798998179	5.42678900543
5.54910689734	5.19025658557	5.54312468263
5.35950842619	5.63513593122	5.33037855555
5.55583358518	5.54501514713	5.40600055219
5.39747086353	5.41580144416	5.70233441268
5.54010474266	5.53160458434	5.29263923773
5.43420566855	5.36921453574	5.52837119097
5.60746799014	5.5706506052	5.60913601376
5.39887435274	5.55233035264	5.25552295517
5.41380236447	5.3991328794	5.74718042726
5.69642594689	5.54996269236	5.22394289071
5.34287210283	5.36493481543	5.61388913424
5.54789697181	5.56582163693	5.4350602864
5.50166239383	5.5562539086	5.4652184753
5.36001316371	5.39871261205	5.48312401956
5.57668200592	5.54912094856	5.59542364617
5.55323146965	5.3653421853	5.26973361583
5.27299483096	5.56586955033	5.62002272537
5.87686216943	5.55617313064	5.42426328986
5.0166650392	5.39870259767	5.34325614858
5.76083648466	5.54914878217	5.68584574648
5.51232479255	5.36534077731	5.32364459667
28.875	29.125	29.0
-17.7207314252	-18.0002399223	-17.9229856737
15.9045675388	15.9951925388	16.0510071631
4.86099499199	4.91055139402	4.81255338086
3.70410644058	3.64606788624	3.82430796898
6.33774583142	6.22970872659	5.89637226621
5.48030160241	5.68766968882	5.90336630111
5.41189101999	5.13573276266	5.14690680374
5.37140288742	5.62234019902	5.64488179087
5.57570423121	5.55969685843	5.29595672175
5.57781285213	5.28825609799	5.6279024901
5.37629264742	5.73233457361	5.40367803275
5.42808035277	5.34827259374	5.47362940134
5.57318366798	5.54200465374	5.48874182622
5.41576514706	5.37644778352	5.46642097019
5.60459712493	5.68818836783	5.47170241573
5.40439865916	5.35331481697	5.34966120081
5.4130032091	5.54540653368	5.67481046454
5.570350144	5.37572483375	5.32633254062
5.42040877785	5.6880011749	5.52126282727
5.60407411485	5.35276986669	5.35282971875
5.40344247894	5.29603473963	5.66422991523
5.41320834388	5.78011809732	5.45429834151
5.5706857338	5.26993509164	5.19502527626
5.54521830329	5.52704457136	5.82580386354
5.40177637326	5.48643343083	5.14209513554
5.4249564987	5.5830769943	5.72162070829
5.5670086832	5.39813906226	5.34324406776
29.0	29.125	29.0
-17.9229856737	-18.1252399223	-17.9229856737
16.1760071631	16.1974467874	16.1760071631
4.73529913226	4.88911176973	4.61029913226
3.64349334468	3.61725524878	3.84574759328
6.44662452797	6.30369257389	6.17518490367
5.42417809689	5.44753277	5.54987395661
5.41705562665	5.4340699756	5.35266872255
5.50497967652	5.5594587805	5.47335522856
5.36967608041	5.40850348146	5.48161421023
5.59896912031	5.57154672366	5.62080650048
5.53051765829	5.34248181058	5.24792670333
5.27703952081	5.56993474769	5.62342508412
5.7573727936	5.5617219124	5.4297776537
5.21530770168	5.39506952146	5.33959374431
5.61437575357	5.54912539449	5.68601034555
5.56164514882	5.36622565931	5.32440954416
5.13768105791	5.6906042465	5.52017760629
5.8314217941	5.35379397695	5.35314511049
5.40066265149	5.42021320494	5.66435643428
5.31351939487	5.57799529248	5.32942647934
5.63559954103	5.41632393205	5.52202452433
5.53549144029	5.47873881759	5.47722271669
5.26800233737	5.60654695713	5.46200279946
5.75651792859	5.39170077289	5.47567759761
5.21883012716	5.41672655893	5.59901665896
5.61366762127	5.69642531435	5.269948281
5.56062644252	5.34255842283	5.61929308396
29.125	29.125	29.0
-18.0002399223	-18.0002399223	-17.9229856737
16.1201925388	16.1201925388	16.0510071631
4.70829714543	4.70829714543	4.81255338086
3.91750751054	3.79250751054	3.69930796898
6.10401286686	6.18126711546	6.2236265148
5.50205659292	5.68287121721	5.55467242822
5.44686570781	5.27161344605	5.34178803917
5.4197770692	5.41720252764	5.60123865135
5.61330307622	5.7052188776	5.28027756676
5.4266313587	5.11539401536	5.64166659628
5.39042573942	5.9298174763	5.40171221509
5.57456653329	5.08776837333	5.34713226772
5.55070764544	5.66462280987	5.56654847761
5.39826903419	5.43625869202	5.52220799969
5.42489459076	5.57989559119	5.24895340387
5.56787008919	5.40942606567	5.72984583361
5.41919625478	5.54031213125	5.32014340619
5.47941863717	5.36695765588	5.51326228939
5.60601234152	5.56688560751	5.6063658494
5.39175320707	5.43031440205	5.13524598349
5.41662659041	5.60139845891	5.82383577084
5.69661031652	5.40242966361	5.27880363996
5.34246032836	5.41393693925	5.64112316824
5.5479931125	5.57063224818	5.28636868537
5.50157032205	5.54526093129	5.60538332145
5.36015851866	5.40161654826	5.42664567201
5.70159688189	5.55005924859	5.5944998535
29.125	29.0	29.0
-18.0002399223	-17.9229856737	-17.9229856737
16.1201925388	16.1760071631	16.0510071631
4.70829714543	4.73529913226	4.68755338086
3.79250751054	3.76849334468	3.90156221757
6.30626711546	6.11937027938	6.07718689051
5.23061696862	5.77287196978	5.60311403935
5.69756156753	5.22217439123	5.22158651077
5.27813591651	5.42362281605	5.66761221655
5.52586400396	5.58760948399	5.33897561384
5.51156750168	5.43876538984	5.54458618824
5.56127728545	5.45592508709	5.45437276932
5.40161816582	5.61058937463	5.46602293023
5.54902358329	5.39724583453	5.48124224791
5.36455058657	5.41309995469	5.59538868411
5.56607865112	5.69640121787	5.26991982733
5.43114356635	5.21844191526	5.62017808096
5.60116109253	5.75000288495	5.42418116746
5.27747914286	5.35496574938	5.46814354383
5.61612948447	5.53368280445	5.48372200431
5.42423097232	5.37918034527	5.47004249424
5.5937104611	5.68875411497	5.47197997614
5.40639340895	5.22745971491	5.47345169287
5.53918765135	5.74798231113	5.47292789001
5.36764227581	5.35421554896	5.47294805344
5.566749726	5.40923244601	5.59769427197
5.55554367358	5.70623496258	5.27075390352
5.39887155393	5.09026656291	5.61933808886
29.125	29.125	29.0
-18.1252399223	-18.0002399223	-18.0479856737
16.3224467874	15.9951925388	16.2532614117
4.68685752113	4.91055139402	4.66611375656
3.63869487308	3.77106788624	3.74774958011
6.33250521136	6.15245447799	6.22842498641
5.4985489227	5.63185506452	5.54379174483
5.34695264582	5.23373077583	5.34467146195
5.60981544045	5.56910011629	5.60215625647
5.27650366455	5.56577907022	5.27969803826
5.64138324016	5.42125335859	5.64163947057
5.5271245885	5.5262792971	5.40165749459
5.27007528306	5.36937414141	5.59732654852
5.76060068442	5.69642394541	5.28692456269
5.34057927007	5.35029153383	5.61282660829
5.53647561399	5.54511685346	5.42354918843
5.38094685115	5.50159062701	5.59453754695
5.68795257492	5.36028844317	5.28128778503
5.35230660078	5.5766105709	5.61637902768
5.54572989872	5.55336306601	5.4234065944
5.37588889337	5.3978226228	5.34382304482
5.68789898612	5.54969320432	5.6860273302
5.35273107286	5.36536479439	5.44858108594
5.29608058389	5.56592695109	5.31799534525
5.78011767736	5.55597958223	5.62482501471
5.26991980334	5.14881708285	5.41359562609
5.52705009522	5.82866363278	5.4709944781
5.48643606229	5.27467672703	5.48451218272
29.125	29.0	29.0
-18.0002399223	-17.9229856737	-17.9229856737
16.1201925388	16.1760071631	16.0510071631
4.70829714543	4.61029913226	4.81255338086
3.79250751054	3.97074759328	3.69930796898
6.30626711546	5.97293065508	6.2236265148
5.48061696862	5.82131358091	5.55467242822
5.41805307034	5.22697286283	5.34178803917
5.36876091651	5.53774213266	5.60123865135
5.700420406	5.38823865819	5.28027756676
5.37627469875	5.71112261926	5.51666659628
5.52242555633	5.20464969886	5.60396646368
5.3797300168	5.75220340162	5.32569264342
5.56831911611	5.35963018628	5.53773584015
5.42668887452	5.5306123411	5.596191847
5.60171167846	5.37899462981	5.25881648505
5.40346493929	5.43982550246	5.62367454936
5.53859233873	5.75652480123	5.42514123627
5.36812310429	5.25278802989	5.34243993875
5.6919004764	5.47263252345	5.68587415616
5.35318507818	5.57264398484	5.32366507126
5.42019916504	5.53321119632	5.52058341617
5.57790787351	5.40535706673	5.47811169885
5.41652480286	5.55091375475	5.46206004783
5.47863853264	5.36418736172	5.47586956743
5.60652909893	5.56566284738	5.59859217356
5.39174079659	5.55617381207	5.14517194216
5.41671426502	5.39909061754	5.8215707363
29.125	29.125	29.0
-18.1252399223	-18.1252399223	-17.7979856737
16.3224467874	16.3224467874	15.8487529145
4.68685752113	4.68685752113	4.95899300515
3.76369487308	3.76369487308	3.65086635785
6.13025096276	6.25525096276	6.2188280432
5.64498854699	5.4427342984	5.5655531116
5.29851103469	5.44495065899	5.33890461638
5.60501696884	5.43157535771	5.47532104622
5.41238434794	5.60984012493	5.35811134385
5.43624556878	5.42568662787	5.69750834628
5.67264660767	5.39095054742	5.30376892242
5.09721320043	5.5747879398	5.52517806965
5.83308358712	5.55064694821	5.35832743496
5.28232929826	5.27306836198	5.6606567548
5.51265414583	5.62730363962	5.32927343812
5.48919937078	5.42142137257	5.52314667376
5.58445826988	5.46759459135	5.4768609517
5.39753716609	5.48423747981	5.33685052194
5.54351891907	5.59513501093	5.5530441208
5.36803932062	5.26963089162	5.52985478225
5.56620389024	5.7447991265	5.37416563542
5.43024848251	5.22233806209	5.52609476858
5.60138958266	5.73956841525	5.59180709172
5.27762352444	5.3578552631	5.26281550648
5.61606048182	5.53452725781	5.62301049219
5.42419175634	5.50360574312	5.42478862034
5.59374455642	5.3614896512	5.46752559608
29.125	29.0	29.0
-18.1252399223	-17.7979856737	-17.9229856737
16.1974467874	15.9737529145	16.0510071631
4.76411176973	4.88173875656	4.93755338086
3.81950949738	3.59505173355	3.49705372038
6.1572529496	6.19182605637	6.3700661391
5.62097438113	5.83956727746	5.50623081709
5.23661419861	5.12129295527	5.21198956756
5.69501772141	5.60094529365	5.68937358333
5.36294529312	5.37985255212	5.33320876827
5.44266585718	5.70223487924	5.41775097799
5.55503721406	5.33408497578	5.65778607492
5.4205845749	5.55012007455	5.31963755734
5.4841911979	5.38063329461	5.52979330005
5.60289605096	5.55915524296	5.59979859411
5.39171679479	5.43022637799	5.13426997941
5.41759902232	5.60280891089	5.82532853516
5.69616542496	5.40221566435	5.27858038323
5.21743369907	5.41371104911	5.6410365939
5.75032624998	5.69561414775	5.28624688568
5.355129809	5.34315791021	5.60553694001
5.53358061568	5.54799373843	5.42661714706
5.37914155144	5.50159067387	5.59445711049
5.68879995923	5.35998994488	5.28096811861
5.22745929494	5.5767113188	5.61651591968
5.74796702283	5.5532323177	5.42326510804
5.35422107283	5.2729839752	5.34397973583
5.40923507748	5.87686583253	5.68594985077
29.125	29.0	29.0
-18.2502399223	-17.9229856737	-17.9229856737
16.524701036	16.1760071631	15.9260071631
4.41541789684	4.48529913226	5.01480762945
3.8893907328	4.04800184187	3.67786834468
6.19086405866	6.02874527938	5.94481387734
5.66110985044	5.59831556774	5.78316477271
5.27738029162	5.35746719416	5.33828036894
5.54403773789	5.58747454517	5.37632558936
5.37680557201	5.28224338442	5.5475701866
5.58903363684	5.7681637299	5.48568180891
5.40757255128	5.1989055637	5.44121183479
5.60549394735	5.61859948681	5.60625657523
5.40793564539	5.56560361658	5.27671878017
5.41031031827	5.38465035373	5.61504907105
5.69561734207	5.4269084498	5.42414489261
5.34388804294	5.56942031872	5.46926786274
5.42279997384	5.41856242067	5.48358857071
5.70374366813	5.60446808745	5.46971471186
5.21358822415	5.40352770825	5.47209638773
5.62519315235	5.41348733368	5.59853420122
5.55800423225	5.57033109679	5.27060650109
5.38709687151	5.42033011161	5.61938452146
5.5525070685	5.60409029342	5.42427411631
5.36627581517	5.40345653511	5.34320343413
5.56537145907	5.41320524215	5.68602947082
5.55594242302	5.57067969171	5.19853186271
5.1487611532	5.54522147858	5.72268582998
29.0	29.125	29.0
-17.9229856737	-18.1252399223	-17.9229856737
16.0510071631	16.1974467874	16.0510071631
4.81255338086	4.76411176973	4.93755338086
3.82430796898	3.69450949738	3.37205372038
6.02137226621	6.35950719819	6.57232038769
5.82611205251	5.47453475684	5.35979119279
5.09109217944	5.28505580974	5.51043117869
5.74287980404	5.69981619301	5.28966355774
5.36771663902	5.35206460973	5.61520733348
5.55673045329	5.57054927997	5.44875117851
5.35586066905	5.47870057059	5.57185248824
5.5678263866	5.36419042211	5.41000477132
5.56016366686	5.58216208536	5.41974309334
5.39585558759	5.54960124773	5.56610820492
5.54896689824	5.27299328737	5.42051816646
5.49146437717	5.75273511379	5.47977228495
5.36308456922	5.21866413275	5.48064432373
5.45258085321	5.739270489	5.4688227759
5.62988149769	5.35858040805	5.3477263801
5.45370934762	5.28440984361	5.67578593597
5.32664340922	5.78307540653	5.32646700389
5.62101907907	5.39579217649	5.39620634524
5.53830444446	5.32437723937	5.67988126829
5.39416633539	5.63274545932	5.19068461081
5.55389091094	5.53457456105	5.72643647523
5.36515624553	5.26857102611	5.33214699961
5.56503109182	5.75654875646	5.50989235177
29.0	29.0	28.875
-17.7979856737	-17.7979856737	-17.5957314252
15.9737529145	15.9737529145	15.7023132902
4.75673875656	4.88173875656	5.00743461629
3.92230598214	3.72005173355	3.65566482945
6.09313218348	6.23957180777	6.20794735981
5.6299400157	5.45649840457	5.56843653439
5.37052906434	5.56798484133	5.3398222215
5.3633829164	5.35282397549	5.47474151772
5.58627396368	5.42957790343	5.60808421815
5.57559080406	5.60091129483	5.29294512859
5.37526260771	5.39377409028	5.59684245182
5.5536357387	5.60756243989	5.42817942966
5.37088407342	5.40973906927	5.34872410035
5.56234191847	5.40967052052	5.6824575041
5.5559437256	5.57047182501	5.32349110882
5.14969559851	5.54604217478	5.52130757148
5.82841326952	5.40164972832	5.35302489602
5.27454763403	5.42478779167	5.78915848272
5.51638638154	5.56705439801	5.1272045894
5.48925572559	5.41948694948	5.79353297492
5.45895801088	5.47951486455	5.22649739197
5.47484476258	5.60593977064	5.60362780968
5.59932940225	5.39173013138	5.43813296446
5.27016048178	5.41665619933	5.59133376439
5.74433988142	5.69661103629	5.2799069206
5.34692926061	5.34244940357	5.61699096541
5.53760273239	5.54799684613	5.42354499704
29.125	29.125	29.0
-18.1252399223	-18.1252399223	-17.9229856737
16.1974467874	16.3224467874	16.0510071631
4.88911176973	4.68685752113	4.81255338086
3.61725524878	3.76369487308	3.57430796898
6.30369257389	6.25525096276	6.4258807634
5.44753277	5.4427342984	5.40823280392
5.3090699756	5.56995065899	5.3902296503
5.76171302909	5.35432110912	5.48103712295
5.26206385717	5.30402550064	5.47165113197
5.49498833479	5.80319313822	5.49811039477
5.54953453078	5.37208546468	5.32607143134
5.53761444001	5.32905950095	5.67860545941
5.41079269772	5.63812238744	5.33194679562
5.54722522249	5.53111707636	5.39266368881
5.36422357147	5.39335938069	5.68011602316
5.56653773338	5.55525433004	5.31633624837
5.43090819021	5.36509379907	5.52395675907
5.60122116619	5.68986539265	5.60351867761
5.40251190368	5.2287688845	5.25923068648
5.41382038822	5.74792393458	5.62221945046
5.69570623978	5.22914894418	5.42528489877
5.34300369865	5.61108006924	5.46770424047
5.54803319128	5.43520783053	5.48364180223
5.50162963644	5.59085801176	5.46994375802
5.35995917286	5.40543775544	5.47220557453
5.57671295063	5.5397726042	5.59834215309
5.55323983648	5.36767685719	5.27065438413
29.0	29.0	29.0
-17.6729856737	-17.7979856737	-17.9229856737
15.6464986659	15.9737529145	15.9260071631
5.10543262945	4.88173875656	5.01480762945
3.72742474672	3.59505173355	3.55286834468
5.886775323	6.44182605637	6.27206812593
5.92512766788	5.43505878028	5.55947089982
5.14113995816	5.28917220387	5.33090735578
5.51804658062	5.58131631999	5.47912207413
5.49937002735	5.42607023321	5.48344942048
5.60651711722	5.50099823285	5.36964744348
5.24997483629	5.58381246153	5.65238094911
5.74947893564	5.27076302822	5.33043639452
5.22739611857	5.62449095073	5.65204943756
5.61095832849	5.5463693696	5.27170560346
5.55998032805	5.26598057477	5.60842157166
5.38917649677	5.75593521376	5.42825316797
5.42668532827	5.34395996421	5.46874176636
5.56840178866	5.5363688149	5.48306048121
5.41888601325	5.38013115997	5.47005496951
5.60463399204	5.56324326962	5.47195455625
5.40342552924	5.55465707675	5.47363169635
5.41344781948	5.39921770355	5.47280035013
5.57037712859	5.42430742881	5.47295313834
5.42032990024	5.69272706664	5.47273312302
5.60407485943	5.34185110925	5.34798908526
5.40346204909	5.29895308189	5.67515047283
5.41320791958	5.78103901611	5.45141773535
29.0	29.0	28.875
-17.7979856737	-17.9229856737	-17.7207314252
15.9737529145	16.0510071631	15.7795675388
4.75673875656	4.93755338086	5.06324924058
3.79730598214	3.62205372038	3.55766681628
6.17038643207	6.29281189051	6.26118744255
5.56075464	5.45041619279	5.56235432261
5.47478529977	5.43498758073	5.4568249609
5.39518337484	5.558879252	5.27628829704
5.42637911443	5.40847635576	5.62986191907
5.71883163936	5.57149200316	5.44615111185
5.3197413411	5.34267609138	5.44552250971
5.55205876651	5.69481932997	5.48764128448
5.50707570773	5.3594612724	5.47571801223
5.35654287238	5.54154852829	5.46828315786
5.57657817936	5.50066829964	5.59842667553
5.55411190705	5.36142329567	5.27158034139
5.39776627381	5.5764898172	5.61912186495
5.54946722245	5.55316426353	5.42412289516
5.3654268104	5.3978551246	5.34328161321
5.69099393154	5.54976232666	5.68606834841
5.35367990058	5.36533520111	5.32349575348
5.29525130884	5.69091073959	5.5204280036
5.78023788726	5.35374169877	5.35328663235
5.39487429096	5.42025570236	5.66428389542
5.32494140442	5.57796331529	5.45438820486
5.6327780944	5.41631966319	5.31980524352
5.53463193987	5.47875766028	5.62366570458
29.0	29.125	29.0
-17.7979856737	-18.0002399223	-17.9229856737
15.8487529145	15.9951925388	16.1760071631
5.08399300515	5.03555139402	4.61029913226
3.57361210925	3.44381363765	3.84574759328
6.2880134189	6.50114835088	6.17518490367
5.58629687618	5.43697382909	5.54987395661
5.35484990935	5.40237391535	5.35266872255
5.37714702258	5.38252502268	5.47335522856
5.70930814602	5.57345458834	5.48161421023
5.37183942184	5.45203181372	5.49580650048
5.3972546348	5.57879258342	5.45018095193
5.58242078137	5.40670440884	5.47698545982
5.29714922742	5.41955395156	5.60321926483
5.80216913875	5.69173658851	5.26713796732
5.25771553897	5.09312758446	5.61931503786
5.46262279097	5.95346139103	5.42529098012
5.57504328305	5.08343537276	5.34285512868
5.53414784865	5.65898361824	5.56090204237
5.40485620447	5.43994780671	5.52588694488
5.42587045047	5.5799498106	5.24901234205
5.56637283364	5.40851292989	5.7289334487
5.41942060561	5.54056319684	5.32039364548
5.47950604756	5.36709900489	5.51340328818
5.60613377104	5.56681282885	5.60629349657
5.39159935021	5.43027626358	5.13520785168
5.41665531729	5.60143346802	5.82387061667
5.69665307713	5.27743296492	5.40380700505
29.125	29.0	29.125
-18.0002399223	-17.9229856737	-18.1252399223
16.1201925388	16.1760071631	16.1974467874
4.70829714543	4.73529913226	4.76411176973
3.79250751054	3.76849334468	3.81950949738
6.30626711546	6.11937027938	6.0322529496
5.48061696862	5.64787196978	5.69822862973
5.41805307034	5.42442863982	5.29242882291
5.49376091651	5.40218319175	5.34701970824
5.37316615741	5.55879684653	5.69569387304
5.72496857164	5.38774923714	5.3459586454
5.0775443209	5.66804241686	5.49748355142
5.82788165351	5.35797846609	5.35742415715
5.41611902251	5.42568527574	5.66982062795
5.30755374202	5.57433032426	5.32573593464
5.63471406363	5.41633496835	5.52204944134
5.53701334361	5.47962566125	5.47811022664
5.39256868561	5.60627924447	5.46173181156
5.55430820386	5.39157550048	5.35055307734
5.36515321831	5.41679827564	5.80134309985
5.69033610968	5.69645916077	5.12354235088
5.35356241357	5.21752518228	5.66770127291
5.54558428294	5.75025451439	5.42923068902
5.50068855636	5.35510745595	5.58240507522
5.36037241003	5.53361001243	5.28427848371
5.57682514109	5.5041420457	5.61736123139
5.55330791077	5.48653490951	5.42299390026
5.39775875428	5.37390270279	5.46862951732
29.125	29.125	29.0
-18.1252399223	-18.0002399223	-17.9229856737
16.1974467874	15.9951925388	16.1760071631
4.88911176973	5.03555139402	4.61029913226
3.61725524878	3.31881363765	3.84574759328
6.30369257389	6.70340259948	6.17518490367
5.44753277	5.2905342048	5.42487395661
5.5590699756	5.32581552648	5.55492297115
5.35720453191	5.58957774288	5.32691560426
5.42994310576	5.54113428065	5.53005582136
5.60035936113	5.42610259904	5.50060497209
5.39349796327	5.52869403585	5.43930026854
5.48281741792	5.36824221011	5.47986888261
5.61207857234	5.5714244145	5.60413686995
5.26306970455	5.55224206062	5.14155843882
5.61896191099	5.39918120849	5.82154216075
5.55086843722	5.54980779409	5.40379663532
5.26574478186	5.49003474943	5.43923677202
5.75492699757	5.48856988771	5.43251622335
5.34428332924	5.50040478908	5.55718325896
5.41153287452	5.49672556971	5.42169307781
5.58228321979	5.49588390695	5.60542345056
5.54176485149	5.37141965292	5.27807507304
5.40089028355	5.57386764621	5.61557529564
5.55045537948	5.55237282536	5.42385904956
5.36496984599	5.39836430887	5.34400631953
5.69081754169	5.54975521086	5.6860014788
5.35365202922	5.36542274718	5.44838377882
28.875	29.0	29.0
-17.7207314252	-17.7979856737	-17.9229856737
15.9045675388	15.7237529145	16.0510071631
4.86099499199	5.28624725375	4.81255338086
3.70410644058	3.30217248496	3.69930796898
6.33774583142	6.41370927863	6.2236265148
5.48030160241	5.64690997208	5.55467242822
5.41189101999	5.24597121279	5.34178803917
5.37140288742	5.4332705281	5.47623865135
5.57570423121	5.70414353936	5.48253181535
5.57781285213	5.23826263274	5.49522697198
5.37629264742	5.7282827856	5.45015382622
5.55308035277	5.3590102646	5.47693073932
5.37092941938	5.53936384085	5.60341354563
5.68720477136	5.3752598624	5.26702254959
5.3539012652	5.68886143893	5.49430864645
5.54603981186	5.22838382459	5.62758461124
5.37544228136	5.74766552384	5.32140002066
5.56266824961	5.35410198111	5.53208551287
5.43037185611	5.53431188359	5.5998756795
5.60177022056	5.3790090706	5.25887488401
5.40255199952	5.43892729554	5.62276131355
5.53884259289	5.75677977371	5.42539161871
5.36826433011	5.2529247186	5.34258123359
5.69182806582	5.59756022626	5.68580167505
5.35314687273	5.37035237505	5.32362687042
5.42023406229	5.67968573801	5.52061833254
5.57791124172	5.35691846399	5.47811505932
29.0	29.125	29.0
-17.9229856737	-18.1252399223	-17.9229856737
16.1760071631	16.1974467874	16.1760071631
4.73529913226	4.76411176973	4.61029913226
3.64349334468	3.81950949738	3.84574759328
6.44662452797	6.1572529496	6.17518490367
5.42417809689	5.49597438113	5.67487395661
5.41705562665	5.56386844721	5.15041447396
5.50497967652	5.22132384852	5.61979485286
5.49467608041	5.76008077714	5.4331725991
5.39671487171	5.37758309336	5.61600802888
5.55195728259	5.38554542161	5.25880738672
5.43085215827	5.58558677698	5.62054166133
5.6061346977	5.42290308572	5.42886004857
5.3996299962	5.59948386852	5.34017327281
5.41403655379	5.40406748609	5.68603747125
5.6962864846	5.41410847624	5.44946426467
5.09270239807	5.57046969543	5.3177290769
5.95256805333	5.54490305713	5.49970015251
5.08376427829	5.27696280992	5.61592121456
5.65910843847	5.62725036973	5.3245886252
5.4398613977	5.42049656198	5.53292069144
5.57991478052	5.46788502383	5.47434318594
5.40855381781	5.48436421087	5.33608030702
5.54056338664	5.47005842411	5.67851191393
5.36708456289	5.47185153527	5.32760501128
5.56681819045	5.59839402673	5.52069871808
5.43027860673	5.27078224407	5.47745735442
29.125	29.125	29.125
-18.0002399223	-18.0002399223	-18.1252399223
15.9951925388	16.1201925388	16.1974467874
4.91055139402	4.83329714543	4.76411176973
3.77106788624	3.59025326195	3.69450949738
6.15245447799	6.32770673975	6.23450719819
5.63185506452	5.63442960608	5.55178900543
5.23373077583	5.26681497444	5.34087043404
5.56910011629	5.55308321102	5.60181817985
5.56577907022	5.50008120622	5.28030469247
5.42125335859	5.26091603454	5.64172131678
5.5262792971	5.88195539367	5.40151793429
5.36937414141	5.20799702743	5.34724768545
5.69642394541	5.47330396517	5.69155486901
5.35029153383	5.57962061273	5.31991436857
5.42011685346	5.53065179266	5.39540851189
5.57884487561	5.40521351397	5.55640811451
5.41610306747	5.55118055781	5.51759429586
5.47861255774	5.36414443732	5.37770388771
5.60660314874	5.56577761362	5.65192488866
5.39174041101	5.43100446096	5.26412670682
5.41669594372	5.60143251525	5.61128007131
5.69642007089	5.40244585249	5.42815394103
5.21757115482	5.41375799903	5.59365395177
5.75025416345	5.69575126189	5.28079633393
5.35509209711	5.34300831507	5.61635230147
5.5336155409	5.54801739829	5.42371393924
5.37914469627	5.50163390157	5.5937371389
29.125	29.0	29.0
-18.1252399223	-17.9229856737	-17.9229856737
16.3224467874	16.1760071631	16.0510071631
4.68685752113	4.61029913226	4.68755338086
3.63869487308	4.09574759328	3.90156221757
6.45750521136	5.77067640649	6.07718689051
5.1712946741	5.84275320521	5.72811403935
5.82064651872	5.38078550029	5.01933226217
5.21267995643	5.13650403676	5.81405184085
5.46658642838	5.85206944989	5.41553400271
5.60862078402	5.29515841948	5.33753346804
5.50856201072	5.4919888812	5.61169307701
5.40792178411	5.49382367181	5.41469789631
5.55696014667	5.58950941007	5.47552617118
5.36054888645	5.26921322599	5.481848896
5.56589537475	5.74542360989	5.46931777885
5.55674112824	5.22271516419	5.47287557204
5.39894541558	5.61433513059	5.59800802629
5.5487995779	5.55987841627	5.27083031027
5.36535811447	5.38836026637	5.61934205713
5.69098819592	5.42697517205	5.42425064256
5.35386297601	5.56849815919	5.46823001111
5.54512838701	5.41881373843	5.35876313119
5.50072822281	5.60461078807	5.67222732027
5.36053854957	5.40345506913	5.32555212647
5.57673578069	5.41344860978	5.64691443535
5.55329595435	5.57036619918	5.27545905264
5.39778741184	5.29533361476	5.60850597775
29.125	29.125	29.0
-18.1252399223	-18.0002399223	-18.0479856737
16.1974467874	16.1201925388	16.2532614117
4.88911176973	4.70829714543	4.54111375656
3.36725524878	3.91750751054	3.9500038287
6.58320107108	6.10401286686	5.95698536211
5.35690777	5.50205659292	5.79448760455
5.38451357357	5.44686570781	5.20303030926
5.49249733484	5.4197770692	5.63971718421
5.59379483489	5.48830307622	5.16237993265
5.29499326155	5.62888560729	5.8339306409
5.72289630334	5.36898611512	5.25752176458
5.22579789453	5.42075389583	5.64665863907
5.74508868452	5.70194574134	5.29108878529
5.35417323801	5.33894673967	5.60211307999
5.53469768572	5.54797954195	5.42626247299
5.37937368232	5.5024141291	5.59564304147
5.68848310259	5.3599186792	5.28063222133
5.22731449648	5.5764719195	5.61633002684
5.74822255221	5.55329706678	5.4233873644
5.35413513928	5.39805682536	5.46900672922
5.53419941138	5.54956315378	5.48365323261
5.37901454662	5.3653543678	5.47001835523
5.43895711685	5.69097092489	5.47184696916
5.6317746108	5.35370943896	5.34857088022
5.45516870936	5.29525203323	5.67516829204
5.45112588265	5.78022698158	5.45147501695
5.41879563845	5.39487801686	5.19390065976
29.125	29.0	29.0
-18.0002399223	-17.9229856737	-18.0479856737
16.1201925388	16.1760071631	16.2532614117
4.70829714543	4.61029913226	4.66611375656
3.79250751054	3.97074759328	3.74774958011
6.18126711546	5.97293065508	6.10342498641
5.68287121721	5.69631358091	5.87104599342
5.27161344605	5.42922711142	4.99597758906
5.41720252764	5.39130250836	5.6720374919
5.7052188776	5.56168026932	5.43830914733
5.36539401536	5.51366684227	5.47952069128
5.52530897912	5.34020863977	5.46386321189
5.50564762192	5.70664521327	5.60015920246
5.36548533902	5.35574931981	5.27454674568
5.57310137311	5.41591349599	5.74126243387
5.55321534683	5.57833832991	5.22218495017
5.39886074849	5.41741355254	5.61564664405
5.54935760439	5.60348597306	5.43476359826
5.3652332901	5.40393783377	5.3401952376
5.5660222538	5.53835855802	5.68522319225
5.55600337155	5.36831978916	5.32412818536
5.27378277442	5.69154904313	5.52042160451
5.62640909246	5.35345500369	5.35333029501
5.42112845443	5.4201360571	5.66410536848
5.46787241607	5.57786204619	5.32950170559
5.48441905626	5.41656424792	5.64706161173
5.46987356382	5.47863237668	5.14993453232
5.47196471626	5.60652302931	5.81069935497
29.125	29.125	29.0
-18.1252399223	-18.1252399223	-17.7979856737
16.3224467874	16.3224467874	15.8487529145
4.68685752113	4.68685752113	4.95899300515
3.76369487308	3.76369487308	3.65086635785
6.25525096276	6.25525096276	6.2188280432
5.4427342984	5.4427342984	5.5655531116
5.56995065899	5.56995065899	5.33890461638
5.35432110912	5.35432110912	5.47532104622
5.55402550064	5.55402550064	5.48311134385
5.39868464103	5.52368464103	5.62025409769
5.53996471328	5.46271046468	5.24795429813
5.30943052729	5.50361590299	5.62317608282
5.80934006853	5.50282958451	5.43008735223
5.25262618137	5.24226534723	5.46448471799
5.46227224214	5.77597972885	5.48371032301
5.57614954547	5.28167061427	5.34590403472
5.53427174817	5.52411530929	5.67397865207
5.4043490936	5.4850953632	5.32689823524
5.55101268637	5.58383738785	5.39642990676
5.36423304214	5.39824277775	5.68003571273
5.56577560261	5.54351133812	5.31534400633
5.43106001393	5.36803469878	5.5243286546
5.60136044241	5.69104019109	5.60362710961
5.40247353634	5.35312288484	5.25913437559
5.41376714877	5.54556488279	5.74720055485
5.69573826091	5.50058439394	5.22306457587
5.34301179867	5.3605857382	5.61414289627
29.125	29.0	29.0
-18.0002399223	-17.7979856737	-17.9229856737
15.9951925388	15.9737529145	16.0510071631
4.91055139402	4.88173875656	4.93755338086
3.77106788624	3.59505173355	3.49705372038
6.02745447799	6.31682605637	6.3700661391
5.83410931311	5.63731302887	5.50623081709
5.08729115153	5.26773257957	5.21198956756
5.61754172742	5.55250368252	5.68937358333
5.57057754182	5.37505408051	5.33320876827
5.16037267521	5.71311556263	5.54275097799
5.80867121707	5.33120155299	5.33053182632
5.27966674653	5.42420246943	5.66833143023
5.52128801487	5.5834670717	5.33491206462
5.48555721105	5.41274274437	5.64344173364
5.58391386208	5.47872270963	5.1499491344
5.39867305684	5.60741310169	5.81156442898
5.54313174122	5.26645039869	5.28054620089
5.36802626724	5.6188551119	5.64253372753
5.56621103232	5.55005274605	5.28569448289
5.55528423773	5.26603547656	5.60556453481
5.39912313411	5.75502322495	5.42636814575
5.42404876736	5.34421075837	5.46976680902
5.56763141392	5.53650979883	5.48311334088
5.41939237676	5.38005858012	5.47003052144
5.60462170403	5.68820519556	5.47176158543
5.40351546125	5.35243774763	5.34876661574
5.4132572756	5.54566064151	5.67506038804
29.0	29.0	29.0
-17.9229856737	-17.7979856737	-17.9229856737
16.1760071631	15.9737529145	15.9260071631
4.73529913226	4.63173875656	5.01480762945
3.76849334468	3.99956023074	3.67786834468
6.11937027938	6.02394680777	5.94481387734
5.77287196978	5.60919625113	5.90816477271
5.22217439123	5.35458377137	5.01102612035
5.42362281605	5.58655694005	5.72501946225
5.58760948399	5.40782291292	5.35268895117
5.43876538984	5.56593660702	5.52932494844
5.45592508709	5.3453999085	5.45689098978
5.61058937463	5.56996359488	5.59249246906
5.39724583453	5.56092056271	5.27868459783
5.41309995469	5.39553742852	5.61654620467
5.69640121787	5.54898564448	5.42359248982
5.34344191526	5.36626394873	5.46929545753
5.54774863635	5.6905854655	5.4833395694
5.50140537368	5.35379446612	5.47002441039
5.36024119332	5.54522412068	5.4719873614
5.57663612226	5.50073297605	5.59848842728
5.55319517406	5.36051022839	5.27066136734
5.39801790325	5.57673890953	5.61937292977
5.54960892902	5.55330553375	5.42426533696
5.36535401837	5.39778313684	5.34320886067
5.69095563197	5.54972399604	5.6860297825
5.35371494371	5.36536998253	5.32353086865
5.29525467243	5.69091419432	5.52043142848
29.0	29.125	28.875
-17.7979856737	-18.1252399223	-17.7207314252
15.8487529145	16.1974467874	15.9045675388
4.95899300515	4.76411176973	4.86099499199
3.77586635785	3.69450949738	3.70410644058
6.01657379461	6.35950719819	6.21274583142
5.8369927359	5.47453475684	5.557555851
5.08820875665	5.28505580974	5.46770564429
5.61696219891	5.69981619301	5.27340487425
5.57055041611	5.22706460973	5.62894431394
5.4103179547	5.77280352857	5.44673064035
5.52935700069	5.33226094629	5.44554963542
5.49517632881	5.53763203324	5.48769600498
5.36858377691	5.38470630837	5.47552373143
5.69899766354	5.56016018864	5.46839857559
5.35016541381	5.42968934762	5.47343306693
5.42042415531	5.60241462301	5.47379520745
5.57811131634	5.40240689876	5.47269772438
5.4163999098	5.41390416351	5.59756839832
5.60380902642	5.57042127192	5.27082094891
5.40410288745	5.29544008887	5.61937357996
5.53825652215	5.80610823486	5.42437804035
5.36828057101	5.13212749461	5.34310538284
5.69159494665	5.66392345371	5.56104326818
5.35345472328	5.42899457167	5.5258145343
5.42012069365	5.58279503717	5.2489741366
5.57786755555	5.40946547049	5.72896834596
5.41656690623	5.53998702108	5.3203970137
29.0	29.0	29.0
-17.7979856737	-17.9229856737	-17.7979856737
15.9737529145	16.0510071631	15.7237529145
4.75673875656	4.93755338086	5.16124725375
3.92230598214	3.62205372038	3.50442673355
6.09313218348	6.16781189051	6.39226965433
5.6299400157	5.65267044138	5.36809733461
5.37052906434	5.41354795643	5.47446355729
5.3633829164	5.40506661454	5.42976285788
5.71127396368	5.55971445166	5.60423047738
5.37333655546	5.38716970864	5.30330100398
5.521702232	5.54301529116	5.59373762252
5.50519412757	5.56017799418	5.42732252176
5.49108560182	5.40443993224	5.34950430105
5.49596835326	5.54540226906	5.68232982955
5.49724567851	5.36531242425	5.32355492164
5.24677600655	5.69178237356	5.52115656524
5.77575271529	5.35365285221	5.35311994271
5.28065697152	5.42001104965	5.66416152132
5.52443836264	5.57803353252	5.3294251937
5.48526041688	5.41639237202	5.52210815198
5.58373535198	5.47870807735	5.47719599677
5.3982035596	5.60653101706	5.4619820411
5.54355724163	5.39171750309	5.35069479651
5.36803441838	5.41672535533	5.80127055948
5.69102482765	5.69642079217	5.12350401049
5.22812839421	5.21756029595	5.66773626442
5.74782178969	5.75025787336	5.42923406399
29.125	29.125	29.0
-18.1252399223	-18.0002399223	-17.9229856737
16.1974467874	16.1201925388	16.0510071631
4.88911176973	4.83329714543	4.81255338086
3.61725524878	3.59025326195	3.69930796898
6.30369257389	6.45270673975	6.2236265148
5.44753277	5.43217535749	5.55467242822
5.4340699756	5.28825459874	5.46678803917
5.5594587805	5.70689584849	5.27398440275
5.40850348146	5.09884311032	5.62897143965
5.57154672366	5.97474682624	5.44678536085
5.34248181058	5.18648269671	5.32035535462
5.69493474769	5.46096120978	5.6900656713
5.3594676638	5.591734886	5.32909049854
5.41650914576	5.52776740929	5.51680080419
5.57793803195	5.40384255955	5.47824702226
5.417241812	5.55229856804	5.4629184161
5.47848691672	5.36392469327	5.47557625985
5.60640488549	5.5657891149	5.59848654268
5.26677376373	5.55592628798	5.14524227132
5.61901917151	5.39923596713	5.8216005597
5.54995055727	5.54889550923	5.2778833995
5.26599668273	5.36528567187	5.64174140306
5.75506906921	5.69096518926	5.2862178939
5.34421033841	5.3538925144	5.60555238897
5.53649451053	5.54512911139	5.42645334857
5.38006410398	5.50071731714	5.46957768354
5.68820782702	5.36054227546	5.4832161049
29.125	29.0	29.0
-18.0002399223	-17.7979856737	-17.9229856737
15.9951925388	15.9737529145	15.9260071631
5.03555139402	4.88173875656	5.01480762945
3.56881363765	3.59505173355	3.55286834468
6.04889410229	6.31682605637	6.27206812593
5.86292195058	5.63731302887	5.55947089982
5.13830730422	5.01773257957	5.45590735578
5.53042439764	5.95701217971	5.40186782554
5.49593420176	5.08217483192	5.42763479618
5.60562710689	5.68499878489	5.59264545665
5.37530536349	5.41805274479	5.39688661778
5.54756151128	5.58325572695	5.4829582306
5.37378143704	5.28898165551	5.48660508703
5.56227666262	5.73925766165	5.46536035254
5.55535214043	5.22078558112	5.47252455413
5.40005197988	5.74100274237	5.47441801052
5.5487537436	5.35758105786	5.47270447905
5.36525084522	5.53464560714	5.47261976602
5.56590936977	5.37836371035	5.47288665493
5.55621362524	5.68888921501	5.34804869102
5.39868216446	5.22741711527	5.67507914451
5.42413549731	5.7481105988	5.32642511904
5.56760892113	5.35412754732	5.52136579613
5.41941825091	5.53423291233	5.60268549761
5.60461520883	5.37901037907	5.25974987119
5.40350474205	5.43894673129	5.62221816209
5.53826643473	5.75677919535	5.42536855663
29.0	29.125	28.875
-17.7979856737	-18.1252399223	-17.7207314252
15.9737529145	16.1974467874	15.9045675388
4.75673875656	4.88911176973	4.86099499199
3.79730598214	3.61725524878	3.70410644058
6.17038643207	6.30369257389	6.21274583142
5.56075464	5.44753277	5.557555851
5.47478529977	5.4340699756	5.46770564429
5.39518337484	5.4344587805	5.27340487425
5.42637911443	5.61075773006	5.62894431394
5.71883163936	5.42510709937	5.44673064035
5.1947413411	5.39092342171	5.57054963542
5.7543130151	5.6997332193	5.28544175638
5.36063608343	5.34858698042	5.62196335573
5.52998448351	5.54439256855	5.41995696446
5.37912240237	5.50160138849	5.59363459533
5.56467084796	5.3608476592	5.28242164225
5.42946233406	5.57645780418	5.61625392589
5.60140098027	5.55311008226	5.42320918206
5.40272995212	5.39805025631	5.3438562544
5.41406921719	5.54964676579	5.68609601335
5.69531923605	5.36532851366	5.3235513249
5.09314662212	5.5659502504	5.52023357965
5.82759376267	5.55598053266	5.35340175403
5.28593985167	5.2738121155	5.66429041511
5.51266999436	5.62640981835	5.45434889136
5.48832237556	5.42111761467	5.31982065671
5.58471274429	5.46787611824	5.62366960123
29.125	29.0	28.875
-18.0002399223	-17.7979856737	-17.8457314252
15.9951925388	15.8487529145	16.1068217874
4.91055139402	5.08399300515	4.71455536769
3.64606788624	3.44861210925	3.75254805171
6.35470872659	6.4902676675	6.34254430302
5.36041544022	5.43985725188	5.34442091902
5.48442663555	5.40329152048	5.49202869137
5.42745896359	5.50694549418	5.42813511684
5.60333999796	5.49617321404	5.47712668954
5.42893525298	5.39616246892	5.50602580916
5.39131621884	5.67698487739	5.44740996373
5.57393228429	5.35334890837	5.47609199727
5.42587480053	5.42562977194	5.60387126499
5.60035314455	5.57477323164	5.26708266642
5.40364285586	5.29156532142	5.61938726577
5.53898141653	5.80667979807	5.42511670609
5.36815822696	5.25748852541	5.34295605797
5.69157145745	5.46160914823	5.68590888982
5.35339083657	5.5753663364	5.32359681092
5.42018821701	5.53431290233	5.39546620307
5.57786099637	5.4047541686	5.68049531788
5.41654367091	5.55083123232	5.31559059748
5.47864351948	5.36416448856	5.52428460954
5.60652373549	5.56585994951	5.60341079792
5.39174067588	5.43104907298	5.2592901003
5.41671554323	5.6013408088	5.62219564733
5.69641984676	5.4024826919	5.42527386734
29.0	29.0	29.125
-17.7979856737	-17.7979856737	-18.1252399223
15.9737529145	15.9737529145	16.1974467874
4.88173875656	4.88173875656	4.76411176973
3.59505173355	3.72005173355	3.81950949738
6.44182605637	6.11457180777	6.0322529496
5.31005878028	5.65875265317	5.69822862973
5.61642645246	5.42154521703	5.29242882291
5.3576224471	5.27626558662	5.34701970824
5.41869722004	5.88663062363	5.69569387304
5.72879471762	5.03908248996	5.3459586454
5.06743744682	5.7379783728	5.49748355142
5.95567678428	5.51639529436	5.35742415715
5.08983070814	5.13868191418	5.66982062795
5.65551318814	5.83879668156	5.45073593464
5.4399056365	5.27268861546	5.19479519274
5.58060426201	5.51570493909	5.82680409953
5.28340762618	5.48951743369	5.26685057613
5.74269787304	5.5838341887	5.51919621686
5.22067606139	5.39791208616	5.48976800624
5.61530949279	5.54322815511	5.4584721176
5.43504808253	5.36823791235	5.47478585515
5.59054264924	5.56614485285	5.59937096217
5.40532963982	5.55522177952	5.27027757883
5.41483903167	5.39916822675	5.61923584523
5.69505364724	5.42405337916	5.42419681232
5.34298369499	5.56761560181	5.46844387194
5.54799978549	5.41939664962	5.4836472432
29.125	29.125	29.0
-18.1252399223	-18.0002399223	-17.9229856737
16.1974467874	15.9951925388	16.1760071631
4.88911176973	4.91055139402	4.61029913226
3.61725524878	3.64606788624	3.84574759328
6.30369257389	6.35470872659	6.17518490367
5.44753277	5.48541544022	5.42487395661
5.4340699756	5.28217238696	5.55492297115
5.5594587805	5.57389858789	5.20191560426
5.15850348146	5.55489838683	5.73231006995
5.97605522085	5.42413678138	5.35416534779
5.04960256199	5.40219690222	5.48774187967
5.66681796996	5.5710488615	5.48466735421
5.4463188556	5.42495719541	5.59325618656
5.57556240328	5.47593267305	5.1444418616
5.28345261577	5.60592423016	5.82245976587
5.74375672928	5.39259651273	5.27821710682
5.22054978821	5.41640555729	5.64146389491
5.73999452617	5.69648534678	5.28602187855
5.35790442289	5.34251654459	5.60581915089
5.53480966676	5.54803225727	5.42637613168
5.37826152157	5.50153983663	5.59453637577
5.68885042118	5.36015341015	5.40599787836
5.22746295953	5.57660951962	5.41422316845
5.74811017884	5.55322947148	5.56971525333
5.35411225901	5.39801801938	5.42054247
5.5342384362	5.54959724296	5.47889349887
5.37901301053	5.3653578828	5.48089751639
28.875	29.0	29.0
-17.7207314252	-17.7979856737	-18.0479856737
16.0295675388	15.7237529145	16.2532614117
4.78374074339	5.16124725375	4.79111375656
3.64829181628	3.62942673355	3.42049533151
6.43574384458	6.06501540574	6.5771188593
5.42706151968	5.7167912075	5.2239105094
5.41797323178	5.40458232186	5.59056885007
5.37940014802	5.27115174881	5.34639578716
5.5719032033	5.76634925666	5.51662979181
5.45247477551	5.24109528668	5.37696413554
5.57915355022	5.71590496858	5.76796980455
5.40672257468	5.36244609018	5.13076216722
5.41923147021	5.54025385118	5.67412456325
5.69192437989	5.4999293352	5.42479873745
5.34314239095	5.4862703661	5.45751182252
5.54889024352	5.3748777547	5.4873568494
5.50133598768	5.69946396745	5.47081691373
5.35985384827	5.34913322553	5.47121042057
5.57678335942	5.42019776727	5.59849451115
5.55326954085	5.57842805828	5.27067532999
5.39794919887	5.41654915585	5.61953744953
5.54960856632	5.60354246103	5.42413390504
5.36537407672	5.40419582158	5.34321883289
5.56594967545	5.53829226592	5.68606809433
5.55596536341	5.36824177019	5.32351095089
5.27381767016	5.69159964665	5.5204293313
5.62641239475	5.35346233972	5.35327877631
29.0	29.0	29.125
-17.9229856737	-17.9229856737	-18.1252399223
16.0510071631	16.0510071631	16.3224467874
4.81255338086	4.81255338086	4.56185752113
3.69930796898	3.82430796898	3.84094912167
6.3486265148	6.14637226621	6.18606558706
5.35241817962	5.49885780392	5.67199053383
5.61322766346	5.56478605233	5.14949686883
5.35054279162	5.34574432002	5.62037438136
5.54691871945	5.55779940284	5.4331997248
5.52685141994	5.52396799715	5.49106274938
5.3382156964	5.33729809128	5.46086735451
5.58009335914	5.70567288765	5.47421745476
5.558750252	5.35652312911	5.47730805111
5.39433085917	5.54082520397	5.34493236188
5.54976830234	5.50113241041	5.67517227159
5.49112708385	5.48644402997	5.32735157949
5.23844259685	5.49932967164	5.5208960433
5.90457117721	5.49713987471	5.47768153895
5.20398753627	5.24596466346	5.46208230231
5.46783332438	5.77604201984	5.47577185746
5.58320644454	5.40575249113	5.34879238168
5.40566638219	5.32211198237	5.67456709627
5.60660084121	5.63167713326	5.32643264885
5.40499181744	5.53532315246	5.39627563718
5.41271190724	5.39340580927	5.68013714583
5.57050881281	5.55442706615	5.31545773435
5.42008834422	5.36515470549	5.52421020282
29.125	29.125	29.0
-18.0002399223	-18.1252399223	-17.9229856737
15.9951925388	16.3224467874	16.0510071631
5.03555139402	4.56185752113	4.81255338086
3.56881363765	3.84094912167	3.69930796898
6.29889410229	6.18606558706	6.2236265148
5.58341345339	5.67199053383	5.55467242822
5.22893230422	5.27449686883	5.34178803917
5.57998079967	5.54312013276	5.60123865135
5.56289564743	5.37738510051	5.28027756676
5.29533575347	5.58906076255	5.64166659628
5.85411307419	5.53262727178	5.40171221509
5.02070739423	5.40304541795	5.34713226772
5.76635990134	5.55449068741	5.69154847761
5.50870836209	5.36187509854	5.3199537511
5.1331134919	5.69077948793	5.52039302816
5.84331123291	5.35478421005	5.35414997388
5.27245671458	5.41992044308	5.66403880748
5.51469183558	5.57782117569	5.32926173735
5.48984133796	5.41642254048	5.52212556614
5.58399909923	5.47878150467	5.35226178194
5.27280975424	5.60650042074	5.66421156887
5.74544331383	5.26670076627	5.32923819446
5.2218442606	5.61899617972	5.64747349398
5.61458611305	5.54998032268	5.27474131839
5.56000489229	5.39099734937	5.60840975676
5.38829307184	5.5528038413	5.42732066724
5.42693945252	5.49065374002	5.46919064099
29.0	29.125	29.0
-17.9229856737	-18.1252399223	-17.9229856737
16.1760071631	16.1974467874	16.0510071631
4.73529913226	4.88911176973	4.68755338086
3.64349334468	3.74225524878	3.90156221757
6.32162452797	5.9764383253	6.07718689051
5.50143234548	5.92122664289	5.60311403935
5.47287025095	5.16193449158	5.22158651077
5.40698166335	5.29728729573	5.66761221655
5.54791616314	5.80168914681	5.46397561384
5.39063265993	5.28891753475	5.21733193964
5.66896002199	5.50322768658	5.80306664221
5.35739893759	5.49102807196	5.1461416948
5.42565815003	5.58884719765	5.72713963603
5.57427560375	5.39444367342	5.3396282148
5.41652924915	5.54332099705	5.50685158088
5.47951024352	5.36925917496	5.48050274593
5.60627285307	5.56563948509	5.58823922883
5.39161488301	5.55520749332	5.27301878683
5.41678279191	5.39925697142	5.62022614514
5.69645526874	5.54904679704	5.54865577609
5.34253006959	5.49034118146	5.26612743389
5.54799972656	5.488583657	5.63002872522
5.50154622933	5.50037701297	5.42172423725
5.36016854444	5.49670937557	5.46711670474
5.57659811874	5.49589584442	5.60933078156
5.55323008892	5.37142617284	5.26781279189
5.39802119781	5.573858907	5.61845875565
29.125	29.125	29.0
-18.1252399223	-18.0002399223	-18.0479856737
16.3224467874	16.1201925388	16.2532614117
4.68685752113	4.70829714543	4.66611375656
3.51369487308	3.91750751054	3.74774958011
6.53475945995	6.10401286686	6.10342498641
5.4771092984	5.50205659292	5.74604599342
5.19314000836	5.44686570781	5.32323183766
5.63605353635	5.4197770692	5.32334361901
5.54443561863	5.48830307622	5.63319038275
5.29077431845	5.62888560729	5.43587755176
5.73380411244	5.36898611512	5.4481840569
5.22296919225	5.42075389583	5.61392330863
5.6189767986	5.70194574134	5.27258092802
5.55712243283	5.21394673967	5.61476530024
5.38829157854	5.75023379054	5.42499160156
5.55283063143	5.35597450481	5.46917942496
5.49084852852	5.53336029033	5.48345421069
5.36299274715	5.37901614251	5.46968401067
5.70266586796	5.56385600769	5.47219728659
5.3502154295	5.42975288561	5.47349700638
5.41951690091	5.6014969116	5.47284273225
5.5783619956	5.40265750952	5.47296388659
5.29153998356	5.41404621053	5.59771345692
5.80599069874	5.69534877444	5.27074351145
5.25762556028	5.0931473465	5.61933598889
5.58673293897	5.952582857	5.42441380301
5.3730822604	5.08368932897	5.34310858106
29.125	29.0	28.875
-18.0002399223	-17.9229856737	-17.7207314252
15.9951925388	16.1760071631	15.9045675388
4.91055139402	4.73529913226	4.86099499199
3.64606788624	3.76849334468	3.70410644058
6.22970872659	6.11937027938	6.21274583142
5.68766968882	5.64787196978	5.682555851
5.26073276266	5.29942863982	5.0154513957
5.42008595042	5.60443744034	5.82435299574
5.70613648273	5.28735722223	5.28762345422
5.36481448686	5.63844509687	5.66381539101
5.52528185341	5.40140126417	5.26377301342
5.50559290142	5.59779364243	5.60949083971
5.36567961982	5.41192754583	5.43193136075
5.69798595538	5.41055460853	5.59101484274
5.35095470683	5.56987695853	5.28092757043
5.54533975532	5.42119384615	5.61735187805
5.50090050953	5.60372994665	5.42303478632
5.48543092646	5.40354094409	5.34385343455
5.37465357591	5.53816518612	5.68601281114
5.69955903383	5.36844807074	5.32361346374
5.09942270725	5.69166782797	5.52024362547
5.82444454109	5.35331856174	5.35337019686
5.41059693528	5.42016501304	5.66430274714
5.31123094804	5.57789053626	5.32935278311
5.63454519721	5.41654446121	5.52206994653
5.53624628607	5.47863259007	5.47723089402
5.39282893135	5.60652745001	5.46198540931
29.125	29.125	29.0
-18.1252399223	-18.1252399223	-17.7979856737
16.1974467874	16.3224467874	15.8487529145
4.76411176973	4.56185752113	4.95899300515
3.81950949738	3.96594912167	3.65086635785
6.0322529496	6.10881133847	6.2188280432
5.69822862973	5.61617590953	5.5655531116
5.41742882291	5.247494882	5.33890461638
5.39476545965	5.69213429862	5.47532104622
5.56262500015	5.237027688	5.48311134385
5.51314203427	5.77049963428	5.49525409769
5.33998723326	5.33137046688	5.45020854672
5.5817059105	5.41326628224	5.60173645852
5.55820424061	5.71179340187	5.27627471476
5.39431907143	5.08663645398	5.61572281389
5.54953478476	5.95163694225	5.4243880285
5.36644067441	5.21015364579	5.3439889859
5.6905829318	5.45663085433	5.68577694058
5.35357782102	5.58624388825	5.32343528395
5.42036411316	5.53134727138	5.52048517592
5.57799108748	5.40389885522	5.47830627213
5.41628011826	5.55142038231	5.46200503714
5.47875833771	5.36416011635	5.47582634625
5.60655045308	5.5659271416	5.5986279658
5.26669533071	5.55585860879	5.27016985923
5.61898136162	5.39919700466	5.61930803974
5.54998676799	5.54892965154	5.54935794477
5.26599983307	5.3652892414	5.39104892292
29.0	29.125	29.0
-17.9229856737	-18.0002399223	-17.7979856737
16.1760071631	15.9951925388	15.8487529145
4.73529913226	4.78555139402	4.95899300515
3.76849334468	3.84832213484	3.65086635785
6.11937027938	6.20826910229	6.0938280432
5.77287196978	5.53385705135	5.7678073602
5.22217439123	5.28697085856	5.19246499208
5.42362281605	5.6880179045	5.52376265735
5.58760948399	5.35552756102	5.48790981546
5.43876538984	5.5714940108	5.4843734143
5.45592508709	5.35317576259	5.45309196951
5.61058937463	5.56622326419	5.60265406364
5.39724583453	5.43578315829	5.27569518626
5.41309995469	5.59824353106	5.61569568818
5.69640121787	5.40263695871	5.42433330799
5.34344191526	5.41460927412	5.5941832667
5.54774863635	5.69528470299	5.28115302566
5.50140537368	5.34303223906	5.61630814114
5.48524119332	5.54808029057	5.4236413362
5.37438187367	5.50162599999	5.5936938452
5.57463479836	5.35994892869	5.28150826328
5.42683054071	5.57671105997	5.61650401228
5.60062508171	5.55324683024	5.42335060519
5.40323668859	5.39797860898	5.34378384231
5.41405804332	5.54960922167	5.68605774199
5.69540899969	5.36536324158	5.44858624587
5.0929557049	5.69095339674	5.31798271065
29.0	29.0	29.0
-17.7979856737	-17.9229856737	-17.7979856737
15.9737529145	16.0510071631	15.7237529145
4.75673875656	4.93755338086	5.16124725375
3.92230598214	3.62205372038	3.50442673355
5.96813218348	6.16781189051	6.39226965433
5.8321942643	5.77767044138	5.36809733461
5.22408944004	5.21129370784	5.47446355729
5.53682452753	5.55150623883	5.42976285788
5.38881818669	5.51127284053	5.60423047738
5.71114974497	5.38237123704	5.30330100398
5.20470441936	5.55389597455	5.59373762252
5.75200912082	5.55729457139	5.42732252176
5.35974560401	5.27852232712	5.34950430105
5.40561873251	5.87323604616	5.68232982955
5.58120949587	5.01664567706	5.32355492164
5.29340136189	5.76171832949	5.64615656524
5.80497030439	5.51206968047	5.15086569411
5.25758161418	5.1330076881	5.81060114562
5.46175237929	5.84249988982	5.40598358256
5.57552825854	5.27274601913	5.19005543178
5.5341286583	5.51478735519	5.83677055304
5.40477724218	5.48976920628	5.26421738288
5.55088675732	5.58397619131	5.51842033091
5.36413271024	5.39783916586	5.49027499438
5.56585705765	5.54318978651	5.45846090291
5.43105839896	5.36827302602	5.47487556716
5.60133849384	5.56614821182	5.59918005634
29.125	29.125	29.0
-18.1252399223	-18.0002399223	-17.9229856737
16.3224467874	15.9951925388	16.0510071631
4.68685752113	4.91055139402	4.81255338086
3.76369487308	3.64606788624	3.69930796898
6.13025096276	6.35470872659	6.2236265148
5.64498854699	5.48541544022	5.55467242822
5.29851103469	5.28217238696	5.46678803917
5.60501696884	5.57389858789	5.27398440275
5.41238434794	5.42989838683	5.62897143965
5.56124556878	5.62639102998	5.44678536085
5.34539235907	5.38075727793	5.32035535462
5.57090707332	5.54223622404	5.6900656713
5.5609481031	5.37394104271	5.32909049854
5.14515781349	5.68805000283	5.51680080419
5.82858556258	5.35331332162	5.47824702226
5.27575555758	5.42103595394	5.4629184161
5.51594791046	5.57763592685	5.47557625985
5.61408428051	5.41641909726	5.59848654268
5.38184518068	5.47870029058	5.14524227132
5.41905387271	5.60656286539	5.8216005597
5.69727761987	5.39170996343	5.2778833995
5.21692556677	5.41671049246	5.64174140306
5.75043691742	5.69643255813	5.2862178939
5.35492016093	5.3425594797	5.60555238897
5.53379918931	5.54800038192	5.42645334857
5.37907068917	5.37653539419	5.59457768354
5.56376535673	5.56242651432	5.4059618563
29.0	29.0	29.0
-17.7979856737	-17.7979856737	-17.9229856737
15.9737529145	15.9737529145	16.0510071631
4.88173875656	4.88173875656	4.81255338086
3.59505173355	3.59505173355	3.69930796898
6.19182605637	6.44182605637	6.2236265148
5.71456727746	5.43505878028	5.42967242822
5.32354720387	5.16417220387	5.54404228776
5.45450566936	5.78357056858	5.45479902705
5.42829416325	5.40463060891	5.20371917789
5.70703335084	5.34718559538	5.84871931647
5.32320429239	5.61005055743	5.1193919074
5.55300349734	5.5386949823	5.72571155023
5.38155089973	5.27388202902	5.34857068145
5.55857571446	5.75304889354	5.50337477464
5.43019925229	5.21887448396	5.35460618572
5.60275419038	5.61431132794	5.79158795211
5.40240994515	5.56050312697	5.12646954447
5.41359563138	5.38818477945	5.66847423597
5.69560775635	5.55201494025	5.42848256995
5.34319729274	5.49113922322	5.45757022148
5.5479782547	5.36308897453	5.48644361359
5.50158678184	5.70259329708	5.47106729617
5.3599948322	5.35019235381	5.47135171541
5.57671077956	5.41954650983	5.59842203004
5.42823146679	5.57836271537	5.27063712916
5.60023836694	5.29152905877	5.61957236589
5.40317225569	5.80599443238	5.42413726552
29.0	29.125	28.875
-17.9229856737	-18.0002399223	-17.7207314252
16.1760071631	15.9951925388	15.9045675388
4.48529913226	5.03555139402	4.86099499199
4.04800184187	3.56881363765	3.57910644058
6.02874527938	6.17389410229	6.41500008001
5.59831556774	5.66066770198	5.41111622671
5.35746719416	5.28474692852	5.51614725542
5.46247454517	5.48198278651	5.15320334585
5.48449763302	5.61613573016	5.82031787915
5.62172410561	5.41425354168	5.30317443884
5.24734717483	5.393861565	5.61990885167
5.74839795841	5.70045654362	5.28966069949
5.3524686846	5.34812286965	5.61105554664
5.53397340081	5.54437183425	5.42278566674
5.5043844438	5.50150728545	5.46974648126
5.36178807002	5.36105742373	5.48398094461
5.57585560265	5.70134627848	5.46978078448
5.55308833303	5.35084455494	5.47163545522
5.39800591232	5.54452980238	5.47383352308
5.42483212784	5.50119052185	5.59784177161
5.56746840831	5.48552600688	5.2706186193
5.29450660952	5.49958127646	5.61918804124
5.80671430599	5.49728207463	5.42456580816
5.25715556222	5.24589174165	5.46808750371
5.46171285251	5.77600358532	5.48373623911
5.57524396075	5.28078762853	5.34502587955
5.53447084573	5.52436960131	5.67423133963
29.125	29.0	29.0
-18.0002399223	-17.7979856737	-18.0479856737
15.9951925388	15.9737529145	16.2532614117
4.91055139402	4.88173875656	4.66611375656
3.64606788624	3.59505173355	3.74774958011
6.35470872659	6.44182605637	6.35342498641
5.48541544022	5.43505878028	5.34153749624
5.28217238696	5.41417220387	5.61611108625
5.69889858789	5.50406207139	5.22646039675
5.35264413823	5.37025560891	5.62359343955
5.57057640568	5.59899624601	5.45763891853
5.47875529109	5.5305723788	5.44241721133
5.36399614131	5.40184524001	5.48708809838
5.58227750309	5.55523396274	5.60099423361
5.54960763913	5.36175371739	5.26612567876
5.27295390484	5.56589475991	5.61998227799
5.87775059751	5.55686216094	5.42514772383
5.01641377619	5.39856563333	5.34300589116
5.76070522598	5.54902498681	5.68571514825
5.51239358474	5.3653705856	5.32371307957
5.13317259863	5.69091042492	5.52047245133
5.8423975579	5.35389409637	5.47820139071
5.27270692926	5.42013574674	5.46204583378
5.51483332773	5.57797275603	5.47584695947
5.48976885534	5.41635439189	5.47360736847
5.58396083248	5.47873939421	5.34742557613
5.39784469433	5.6065357363	5.67512771887
5.54319243709	5.2667046348	5.32635809817
29.0	29.0	29.125
-17.9229856737	-17.7979856737	-18.1252399223
16.1760071631	15.9737529145	16.1974467874
4.73529913226	4.88173875656	4.76411176973
3.64349334468	3.72005173355	3.69450949738
6.32162452797	6.23957180777	6.23450719819
5.50143234548	5.45649840457	5.55178900543
5.47287025095	5.56798484133	5.34087043404
5.40698166335	5.35282397549	5.35181817985
5.42291616314	5.55457790343	5.68481318965
5.59288690852	5.39865704624	5.34884206819
5.39752039769	5.66521371458	5.49840115655
5.60809479731	5.35686658016	5.35684462865
5.40901699734	5.30138022197	5.66979350224
5.4095822829	5.77661808996	5.45068121414
5.57065076784	5.26991068202	5.19498947354
5.54610555413	5.5278884753	5.8266886818
5.40152402716	5.48619702584	5.14184418473
5.42482567011	5.58295056978	5.72148984799
5.56707775759	5.39820323083	5.34331289822
5.41946672281	5.54358046307	5.5069098367
5.47951600297	5.36818749857	5.47958921406
5.60594441478	5.5658999108	5.58848973955
5.39172861296	5.55539260273	5.2731601507
5.41665542253	5.39916387738	5.6201535935
5.69661154601	5.54900507413	5.54861757987
5.34244956672	5.36538196744	5.26616236936
5.54799662971	5.56584060592	5.63003207796
29.125	29.125	29.0
-18.1252399223	-18.0002399223	-17.9229856737
16.1974467874	16.1201925388	16.1760071631
4.88911176973	4.70829714543	4.61029913226
3.61725524878	3.79250751054	3.84574759328
6.30369257389	6.30626711546	6.17518490367
5.44753277	5.48061696862	5.42487395661
5.5590699756	5.41805307034	5.55492297115
5.35720453191	5.36876091651	5.32691560426
5.30494310576	5.700420406	5.53005582136
5.80261360972	5.37627469875	5.37560497209
5.37205833898	5.39742555633	5.64155451713
5.32900478045	5.58198426539	5.45842925831
5.63831666824	5.42187949182	5.32532423249
5.53100165863	5.47513048565	5.62005078331
5.39335298928	5.60651015007	5.41352599334
5.55529371257	5.39258425591	5.47176282193
5.36507831535	5.41647576151	5.6096461696
5.56486150062	5.69629495801	5.26693449277
5.55602802041	5.217627075	5.61844424543
5.39922952246	5.7502934365	5.42505053974
5.54902932869	5.35506168071	5.46826704006
5.49018282426	5.53361036186	5.48370444999
5.36371434729	5.37915733861	5.46982500947
5.70262000282	5.56378365336	5.47212493376
5.35023178602	5.42971468789	5.47345887457
5.41935775289	5.60153178116	5.47287757808
5.57848076457	5.27766088599	5.47296725168
29.0	29.0	29.125
-17.7979856737	-17.7979856737	-18.1252399223
15.9737529145	15.7237529145	16.1974467874
4.88173875656	5.28624725375	4.76411176973
3.59505173355	3.30217248496	3.56950949738
6.44182605637	6.41370927863	6.31176144678
5.43505878028	5.52190997208	5.60760362973
5.28917220387	5.44822546139	5.11787242087
5.58131631999	5.4118309038	5.73231251117
5.42607023321	5.5503309019	5.33003710498
5.50099823285	5.38950072863	5.53572604301
5.58381246153	5.54396049108	5.58355904493
5.39576302822	5.43434946438	5.13924930169
5.42223670214	5.60697675366	5.8293905785
5.69280899389	5.27379889794	5.27519193914
5.34253896364	5.61615679083	5.51608767721
5.54888249357	5.42508066939	5.48950675817
5.50128027189	5.59345004545	5.45869259344
5.36004378099	5.40628392293	5.47495684717
5.57666933184	5.53924775961	5.59936709631
5.55326385721	5.36767653326	5.27009485942
5.39798814221	5.5667197798	5.61936603882
5.54959291482	5.55553941597	5.42418687921
5.365370382	5.39888404851	5.34341052697
5.69095456126	5.54897303309	5.68591816424
5.35371050967	5.36552643584	5.32352030383
5.29525646727	5.69078528338	5.52047186255
5.78022518674	5.35390139468	5.35325820599
29.0	29.0	29.0
-17.9229856737	-17.9229856737	-17.9229856737
16.0510071631	16.0510071631	16.0510071631
4.93755338086	4.81255338086	4.81255338086
3.62205372038	3.82430796898	3.69930796898
6.29281189051	6.14637226621	6.0986265148
5.45041619279	5.49885780392	5.88192667681
5.43498758073	5.56478605233	4.99309416628
5.558879252	5.22074432002	5.67111988677
5.40847635576	5.76005365143	5.43888867583
5.57149200316	5.37752837286	5.47954781699
5.34267609138	5.51073970241	5.46391793239
5.56981932997	5.50821711065	5.47496492166
5.56171552099	5.49208207002	5.476916412
5.395108904	5.37026701562	5.46982920098
5.54910991077	5.69950579252	5.47284142736
5.36622176727	5.35030556056	5.47402097508
5.56560913381	5.41986073428	5.59732841803
5.55604768631	5.70322026927	5.27061799608
5.39877272972	5.08941816508	5.61944602892
5.54918279816	5.95227876174	5.42443094373
5.36530807541	5.20926264836	5.34307185805
5.69085601908	5.45693649651	5.68603221033
5.35393597957	5.58619175321	5.32357603956
5.42014028463	5.53139006486	5.5204118439
5.57795692388	5.27886674974	5.47826821444
5.41635904572	5.75367029301	5.46204024955
5.47874217656	5.21773940528	5.47582957844
29.125	29.0	29.125
-18.1252399223	-17.7979856737	-18.2502399223
16.1974467874	15.9737529145	16.399701036
4.88911176973	4.88173875656	4.61767214543
3.49225524878	3.59505173355	3.86795110851
6.50594682249	6.44182605637	6.0370514212
5.42609314571	5.43505878028	5.68734794634
5.28025733814	5.41417220387	5.2953122457
5.5856968764	5.50406207139	5.59793731337
5.55143543554	5.37025560891	5.29060584735
5.42319205055	5.59899624601	5.63881076829
5.52772171022	5.5305723788	5.40054560866
5.36901601942	5.40184524001	5.34802149475
5.57133612248	5.55523396274	5.69146657699
5.55229038971	5.36175371739	5.31996269766
5.14902631022	5.56589475991	5.52025361362
5.82941622529	5.55686216094	5.47925379992
5.27441224881	5.14856563333	5.46178217094
5.51623323905	5.828533484	5.60066740566
5.48927291221	5.2747455856	5.27144550183
5.58402195108	5.51635402288	5.61890583261
5.3975657834	5.4891868993	5.42439135231
5.54349852058	5.58398747587	5.46799688793
5.36817387938	5.27260665645	5.48399575277
5.5660988021	5.74575273195	5.46989291839
5.55526165352	5.22171987083	5.47196011553
5.39916203065	5.73954584848	5.47351324737
5.54904716225	5.35780816826	5.47290439456
29.0	29.125	29.0
-17.7979856737	-18.1252399223	-17.9229856737
15.9737529145	16.3224467874	16.0510071631
4.88173875656	4.56185752113	4.81255338086
3.72005173355	3.96594912167	3.69930796898
6.11457180777	6.10881133847	6.2236265148
5.65875265317	5.61617590953	5.67967242822
5.42154521703	5.247494882	5.13953379057
5.40126558662	5.44213429862	5.62267827564
5.55937637503	5.76653618518	5.43409020422
5.38777636285	5.27536613709	5.36542850038
5.66809713737	5.44969331343	5.6632887582
5.35778418529	5.57667586291	5.32760769224
5.42580069347	5.5387939392	5.52593755163
5.57433671566	5.40172559407	5.47465479829
5.41629558582	5.55087870413	5.46201546448
5.47964114497	5.36507554887	5.47671011707
5.60628313651	5.56541058054	5.59836144089
5.39157061316	5.43104261058	5.27004485899
5.41679881487	5.60141400289	5.61937952068
5.69646001169	5.40247823928	5.42439170695
5.21752503913	5.41375240308	5.59327003088
5.75025421834	5.695736282	5.2814034081
5.35510758423	5.34301935754	5.61644943598
5.53361008145	5.54801681638	5.42356885508
5.37914197516	5.50163085132	5.46865564437
5.56378916272	5.35996355087	5.48379742824
5.4297173462	5.57671113355	5.47006774846
29.125	29.125	29.0
-18.0002399223	-18.0002399223	-18.0479856737
15.9951925388	16.1201925388	16.2532614117
5.03555139402	4.70829714543	4.79111375656
3.31881363765	3.79250751054	3.54549533151
6.70340259948	6.30626711546	6.2498646107
5.1655342048	5.35561696862	5.69760438229
5.52806977508	5.49530731894	5.19343336605
5.44313811858	5.4245755408	5.53647855099
5.58957589178	5.47742239283	5.48386733567
5.43090107065	5.50676903008	5.35840155776
5.51781335246	5.57215796884	5.5308163056
5.3711256329	5.27373474303	5.53388437525
5.57234201962	5.75036022676	5.37977530673
5.42666253212	5.21869049077	5.522289083
5.60140833138	5.73954738795	5.59188689013
5.40331344929	5.35874250987	5.26370565307
5.41367064136	5.53427150405	5.62272007648
5.57050719018	5.50347599654	5.42467366348
5.54533233859	5.36155914967	5.46759824021
5.40165036186	5.57613389737	5.48370503634
5.42502611108	5.55325446859	5.47011166582
5.56700826919	5.39774308096	5.47205579123
5.41940852292	5.5499196516	5.5983614219
5.60456020467	5.36525062874	5.27069280182
5.40369428699	5.44090842659	5.61940780584
5.53815259868	5.75827712976	5.4242387471
5.3682182284	5.2523644125	5.34320958296
29.125	29.0	29.0
-18.0002399223	-17.9229856737	-17.9229856737
15.9951925388	16.1760071631	15.9260071631
4.91055139402	4.73529913226	5.01480762945
3.64606788624	3.76849334468	3.55286834468
6.22970872659	6.11937027938	6.27206812593
5.68766968882	5.64787196978	5.68447089982
5.26073276266	5.29942863982	5.12865310718
5.42008595042	5.60443744034	5.62556169843
5.70613648273	5.41235722223	5.43500780935
5.23981448686	5.43619084827	5.61484897188
5.727536102	5.67284088847	5.25875313531
5.35915327712	5.3470977827	5.62043222033
5.53912123095	5.55356869852	5.42924861017
5.37553017839	5.49799368079	5.58994243735
5.68876789633	5.35994081555	5.28151619125
5.22834194268	5.57759654871	5.61742227832
5.74771550278	5.55298444124	5.42306913578
5.35409092865	5.27285199306	5.34365580095
5.40930395516	5.8769343671	5.6861339671
5.70626860259	5.01670361997	5.32361917277
5.09023343829	5.7608015965	5.52020309597
5.95166014336	5.51232130992	5.35338595201
5.0842814952	5.13314939466	5.66430700425
5.65913567366	5.8424270978	5.45434769699
5.43993105088	5.27270771956	5.19481617275
5.57972178674	5.51482239833	5.70092570747
5.28366148051	5.48977256986	5.46935826698
29.125	29.125	29.0
-18.1252399223	-18.0002399223	-17.7979856737
16.1974467874	16.1201925388	15.8487529145
4.76411176973	4.70829714543	4.95899300515
3.81950949738	3.79250751054	3.77586635785
6.1572529496	6.30626711546	6.01657379461
5.49597438113	5.48061696862	5.7119927359
5.56386844721	5.29305307034	5.29046300525
5.34632384852	5.5710151651	5.47052257462
5.55782652855	5.4289807817	5.36899202724
5.52402271766	5.62697055848	5.69462492349
5.33710381048	5.38078440363	5.3028513173
5.58078830537	5.41729094454	5.65075759815
5.55878376911	5.5760010105	5.28110031207
5.39434619714	5.41672579626	5.604896851
5.54958950526	5.60401557275	5.42707717048
5.36624639361	5.40435541871	5.34502200875
5.56569834953	5.41295808972	5.68520380348
5.55583846102	5.57054450798	5.19836877571
5.14888510634	5.54529071387	5.72270018774
5.82870243093	5.40181457871	5.33206482067
5.27464285759	5.42492160145	5.51032634322
5.51631437814	5.56700531499	5.48061896567
5.4892328867	5.41944371615	5.58778751586
5.58398735196	5.47954554136	5.14803765515
5.27259123987	5.60594513916	5.82247570538
5.74575818679	5.39171770728	5.27734380757
5.22172257282	5.41665914843	5.64171718673
29.125	29.125	29.0
-18.0002399223	-18.0002399223	-17.9229856737
16.1201925388	16.1201925388	16.0510071631
4.70829714543	4.83329714543	4.93755338086
3.79250751054	3.59025326195	3.62205372038
6.18126711546	6.32770673975	6.16781189051
5.68287121721	5.63442960608	5.65267044138
5.27161344605	5.26681497444	5.28854795643
5.54220252764	5.55308321102	5.48232086313
5.37796462901	5.37508120622	5.49052907595
5.46408788826	5.71317028313	5.49142594407
5.60993624088	5.33100727219	5.32481574959
5.45866576145	5.29931788716	5.67979164212
5.33160809197	5.7857277117	5.33205576754
5.61737582128	5.39126373754	5.39257884902
5.53821826932	5.32492555589	5.67984287928
5.3952440443	5.63365508962	5.19157347523
5.55352383463	5.53437746545	5.72618440795
5.36501943302	5.26824672942	5.45701577198
5.56513947258	5.7567331209	5.30770715709
5.43117650337	5.2189292426	5.50202081881
5.60126183779	5.61339904308	5.74164922858
5.40263289097	5.56075404941	5.12189571974
5.41368210698	5.38832583241	5.67944220147
5.69572968281	5.55194228986	5.42572050766
5.34304367729	5.49110115377	5.45649883002
5.54800673285	5.36312391312	5.48705186435
5.50162954084	5.70259660301	5.47113716338
29.0	29.125	29.0
-17.9229856737	-18.1252399223	-17.7979856737
16.1760071631	16.1974467874	15.8487529145
4.73529913226	4.76411176973	4.95899300515
3.76849334468	3.81950949738	3.65086635785
6.11937027938	6.1572529496	6.0938280432
5.64787196978	5.49597438113	5.7678073602
5.42442863982	5.43886844721	5.19246499208
5.27718319175	5.54857809711	5.52376265735
5.63605109513	5.41138690425	5.48790981546
5.44356386144	5.44746432879	5.4843734143
5.4450444037	5.54415653067	5.45309196951
5.48847279742	5.42346799769	5.60265406364
5.60041768825	5.48510880303	5.27569518626
5.2660808019	5.60231652246	5.61569568818
5.74481570329	5.39168966908	5.42433330799
5.22318566637	5.41754430182	5.5941832667
5.73931648236	5.69635970576	5.28115302566
5.35773375444	5.34231828134	5.61630814114
5.53459401817	5.54806560998	5.4236413362
5.5036401993	5.50160881583	5.4686938452
5.36145725694	5.36012352082	5.48376251188
5.57609497526	5.7015934364	5.47006438799
5.55330024382	5.35099165704	5.47179221632
5.39774273153	5.54445656835	5.34858231391
5.54990435868	5.50115117867	5.6751770586
5.49025613349	5.48556121378	5.32646966866
5.2386568172	5.49958499427	5.52115456437
29.125	29.125	29.0
-18.0002399223	-18.2502399223	-17.9229856737
15.9951925388	16.399701036	16.0510071631
4.91055139402	4.74267214543	4.68755338086
3.77106788624	3.54069685991	3.90156221757
6.15245447799	6.38574529409	6.07718689051
5.63185506452	5.61746671091	5.47811403935
5.23373077583	5.26170113663	5.54884075936
5.56910011629	5.55780184406	5.31891834366
5.44077907022	5.37483975435	5.53385684927
5.62350760719	5.71253650322	5.50094304871
5.3798396728	5.20587070548	5.43869361433
5.41781575254	5.75190597685	5.4797870364
5.70122241701	5.23474303556	5.47927643025
5.33941085044	5.60745639673	5.46889155048
5.54800027625	5.43516742748	5.47272647872
5.50250823214	5.59174625381	5.47371086187
5.35970891467	5.40518634976	5.4728717799
5.5765834452	5.53964146747	5.5976323169
5.55330834551	5.36774564789	5.27069609865
5.2730169036	5.56683775691	5.61941131526
5.75183203518	5.55531506245	5.42440110387
5.21891877868	5.39898444611	5.34308528445
5.61440794475	5.54899594102	5.68604447564
5.56076257011	5.36548555827	5.32356485931
5.13793250743	5.69079639232	5.52041224709
5.83155194289	5.35390722112	5.35327172855
5.27559379292	5.42017450034	5.66429291697
29.0	29.0	29.0
-17.9229856737	-17.9229856737	-17.9229856737
16.1760071631	16.0510071631	15.9260071631
4.61029913226	4.93755338086	5.01480762945
3.97074759328	3.49705372038	3.55286834468
5.97293065508	6.3700661391	6.39706812593
5.69631358091	5.63123081709	5.35721665123
5.42922711142	5.13473531897	5.47734698008
5.39130250836	5.75855895903	5.430680463
5.43668026932	5.35395253284	5.47865094888
5.59092109086	5.43369627096	5.50552812687
5.39602326407	5.55961205127	5.44724327773
5.60864720011	5.42083435951	5.47595841369
5.40898940254	5.60863287279	5.47918735493
5.40983128421	5.40040505789	5.46918850616
5.57034106931	5.41339591338	5.47291735125
5.42121458045	5.69649302223	5.47361707551
5.60382404969	5.34251677611	5.34773805057
5.40333117956	5.2982435535	5.67501996632
5.53827671181	5.78108087619	5.45148651117
5.36845934946	5.26932355325	5.19412972814
5.69162790621	5.52718231634	5.82635412357
5.35333319455	5.48626263724	5.14212183602
5.42016904822	5.58327571884	5.72168615938
5.577885945	5.39805930579	5.34304600803
5.41654487216	5.54351997616	5.50698698456
5.47863337196	5.36825712354	5.47963059237
5.60652737739	5.56589274748	5.58845371288
29.125	29.125	29.0
-18.1252399223	-18.0002399223	-17.9229856737
16.3224467874	16.1201925388	16.0510071631
4.68685752113	4.70829714543	4.81255338086
3.76369487308	3.91750751054	3.69930796898
6.25525096276	6.10401286686	6.2236265148
5.4427342984	5.62705659292	5.55467242822
5.44495065899	5.36961145921	5.46678803917
5.55657535771	5.3639624449	5.27398440275
5.40758587634	5.58630108939	5.62897143965
5.57212625216	5.57564552456	5.44678536085
5.34250893629	5.37506832691	5.32035535462
5.6949894682	5.55375115643	5.6900656713
5.359273383	5.37089046483	5.32909049854
5.29162456349	5.68730253594	5.51680080419
5.78019867195	5.35370496073	5.35324702226
5.39576280517	5.42113911484	5.66517266469
5.32468976298	5.57771252248	5.32913663556
5.63264687343	5.41618932596	5.52192815381
5.53470083049	5.47882630471	5.47729499152
5.26841078904	5.60657368806	5.46202600343
5.75663093213	5.3916665445	5.47564805771
5.21889044877	5.41672637227	5.59901586865
5.61344488734	5.69643700503	5.2699592104
5.56075362945	5.21755457752	5.61928936944
5.38831054411	5.75025494272	5.42443281041
5.55194781373	5.35509667855	5.46827483071
5.49110378523	5.53361380735	5.48365308996
29.0	29.0	29.0
-17.7979856737	-17.9229856737	-17.9229856737
15.9737529145	16.0510071631	16.0510071631
4.75673875656	4.93755338086	4.81255338086
3.79730598214	3.62205372038	3.69930796898
6.17038643207	6.16781189051	6.3486265148
5.68575464	5.77767044138	5.35241817962
5.27253105117	4.96129370784	5.48822766346
5.41662299914	5.83101473602	5.42779704022
5.5801917519	5.29564784053	5.35273334375
5.56759354346	5.5350690836	5.58336190396
5.37906363562	5.46549490458	5.50308502773
5.42897381532	5.58877328735	5.37801512103
5.57253166781	5.40320696091	5.53223315686
5.41582044796	5.53981974721	5.46322171211
5.47952489702	5.36798152087	5.46492648206
5.60682718178	5.56712091927	5.60237872089
5.39146265552	5.42999672479	5.14583736232
5.41653065908	5.60124780707	5.82085682844
5.69668275911	5.277696387	5.27795816652
5.34248333502	5.61609877678	5.64172560466
5.54796357411	5.42415669409	5.28636639946
5.50156959767	5.59374120057	5.60543732068
5.36016942434	5.40641044182	5.42646225008
5.576593156	5.53917094728	5.59461156132
5.55323054219	5.36764305198	5.28094373338
5.39802245342	5.56675435424	5.61647814987
5.54959544811	5.55554192403	5.42328811828
29.125	29.125	28.875
-18.1252399223	-18.0002399223	-17.7207314252
16.3224467874	15.9951925388	15.9045675388
4.43685752113	5.03555139402	4.86099499199
4.04320337027	3.56881363765	3.57910644058
6.03962596276	6.17389410229	6.41500008001
5.59543214496	5.66066770198	5.41111622671
5.35654958903	5.28474692852	5.39114725542
5.58805407367	5.48198278651	5.48045759445
5.40727051013	5.61613573016	5.47162400626
5.56596420181	5.41425354168	5.49805567427
5.3451509072	5.393861565	5.57626571214
5.69527329341	5.70045654362	5.2739815445
5.35855728779	5.22312286965	5.62481965281
5.54193127888	5.74662608284	5.42081984908
5.37559889961	5.35506766115	5.59324934763
5.56370813403	5.53449903486	5.28227909881
5.43001774524	5.37889050149	5.61619281398
5.6016123296	5.68865774444	5.4234428454
5.40266567454	5.22753198974	5.46872535295
5.41387243824	5.7480055151	5.48383148132
5.57047334418	5.35418600907	5.47003521904
5.4203913518	5.40923165571	5.59677594557
5.60385669911	5.70624589198	5.27134429089
5.40358736603	5.09026284839	5.61936150466
5.53821553021	5.95166079872	5.42446323855
5.36838119238	5.20927066006	5.34291623825
5.69167711809	5.45688514635	5.68614603993
29.125	29.0	29.0
-18.1252399223	-17.7979856737	-17.9229856737
16.1974467874	15.8487529145	16.0510071631
4.76411176973	5.08399300515	4.81255338086
3.69450949738	3.44861210925	3.69930796898
6.35950719819	6.3652676675	6.3486265148
5.34953475684	5.64211150047	5.22741817962
5.48731005834	5.25685189618	5.69048191206
5.55337656872	5.55538710531	5.40635741592
5.27550622086	5.37597168564	5.44892070629
5.77760200017	5.71253603413	5.45509150267
5.32138026291	5.33117442728	5.53438773321
5.54051545602	5.54914774893	5.42565647425
5.38562391349	5.50640710391	5.61099289104
5.68458066013	5.35681270235	5.2744674074
5.35240797332	5.57671433139	5.61553521334
5.54654527821	5.55421240149	5.42474328472
5.37559919273	5.39751712675	5.3437559977
5.68780291165	5.54959423187	5.68587097022
5.35280321941	5.36544198115	5.32345224937
5.29610371883	5.56594912246	5.5204274303
5.780088208	5.55594932121	5.47834695551
5.26991900843	5.14881657064	5.58699317085
5.52706100551	5.82867476398	5.39856993563
5.48643235551	5.27467287747	5.41781653704
5.58307254114	5.5163158798	5.57042113333
5.39814086485	5.4892218893	5.4196283363
5.54354448275	5.58399078493	5.4788817827
29.0	29.0	29.0
-17.9229856737	-17.7979856737	-17.9229856737
16.1760071631	15.8487529145	16.0510071631
4.73529913226	5.08399300515	4.81255338086
3.76849334468	3.57361210925	3.69930796898
6.24437027938	6.2880134189	6.3486265148
5.57061772119	5.46129687618	5.35241817962
5.36861401552	5.43210415794	5.36322766346
5.50018120492	5.43296164687	5.63005128881
5.3805567638	5.61131013285	5.33129371945
5.59608569752	5.42507950457	5.5545492665
5.40460005317	5.51617242301	5.57706887503
5.6048732979	5.37216927217	5.26287820221
5.40870604642	5.44738987963	5.62831612121
5.53524365761	5.75406560425	5.42177991789
5.36828408465	5.25231041316	5.34254574256
5.69252103586	5.47342162815	5.68668549925
5.35300994436	5.57229942056	5.32337576671
5.42010962511	5.5333091066	5.52048789656
5.57794093357	5.40531392383	5.47818383053
5.41656329324	5.55093056731	5.46208295575
5.47861288629	5.36419720436	5.47584015582
5.60652348723	5.56564657335	5.59859145229
5.39175224149	5.43118084944	5.27018280103
5.41671139004	5.60134603893	5.6193127778
5.69641767693	5.40243926091	5.42435282374
5.21756467354	5.41378667045	5.59330380028
5.75025717097	5.69573980323	5.28140704
29.125	29.125	29.0
-18.0002399223	-18.0002399223	-17.9229856737
15.9951925388	16.1201925388	16.1760071631
4.91055139402	4.70829714543	4.61029913226
3.64606788624	3.79250751054	3.84574759328
6.35470872659	6.18126711546	6.17518490367
5.48541544022	5.68287121721	5.42487395661
5.28217238696	5.27161344605	5.55492297115
5.69889858789	5.41720252764	5.32691560426
5.10264413823	5.5802188776	5.53005582136
5.85008490287	5.56764826396	5.37560497209
5.26313029109	5.12886935482	5.64155451713
5.51669398786	5.83359773024	5.33342925831
5.49387643313	5.27965881062	5.52757848108
5.58108635509	5.51266428769	5.47361115901
5.39763853863	5.48913732395	5.33696760447
5.54433429857	5.46006970704	5.67881554212
5.36774961999	5.47447886237	5.32732586192
5.56610781576	5.59918103286	5.52051377529
5.43032062906	5.27027229127	5.47772069786
5.6014127176	5.74436289608	5.58703193899
5.27759405508	5.34689038985	5.27366756015
5.6160596869	5.53760416648	5.62012627552
5.42420266663	5.50441884081	5.42388157343
5.59374084963	5.36090002451	5.46810152384
5.40639508299	5.57610809962	5.48369891755
5.41417647575	5.55321942997	5.47020069292
5.56989995115	5.39793671791	5.4718640246
29.0	29.125	29.125
-17.7979856737	-18.1252399223	-18.1252399223
15.9737529145	16.0724467874	16.1974467874
4.88173875656	5.09136601832	4.76411176973
3.59505173355	3.47081562448	3.56950949738
6.44182605637	6.35213418502	6.43676144678
5.43505878028	5.45233124161	5.40534938113
5.28917220387	5.54818929222	5.26431204517
5.58131631999	5.36008795469	5.68387090004
5.42607023321	5.55586071089	5.32523863338
5.50099823285	5.39752558403	5.5466067264
5.58381246153	5.53991046186	5.58067562215
5.39576302822	5.43432108628	5.26333169657
5.42223670214	5.60747438154	5.62771585841
5.69280899389	5.39883497021	5.42165868914
5.21753896364	5.4138178482	5.59270078658
5.75113674216	5.69642983893	5.28225975717
5.35484064759	5.34286721551	5.61612831885
5.53348539212	5.54789751105	5.42363820466
5.37921355485	5.50166324475	5.59361163705
5.68882279812	5.36001302057	5.28157055503
5.22742995386	5.57668170988	5.61651363377
5.74796629694	5.55323159793	5.42331910727
5.35423191258	5.27299489999	5.3437963139
5.40923137531	5.8768620989	5.6860615586
5.70623052853	5.01666504381	5.3235812726
5.09026835776	5.76083650377	5.52023790317
5.95166345703	5.51232478481	5.35338923573
29.125	28.875	29.0
-18.1252399223	-17.7207314252	-17.7979856737
16.1974467874	15.9045675388	15.7237529145
4.88911176973	4.86099499199	5.16124725375
3.61725524878	3.70410644058	3.50442673355
6.30369257389	6.33774583142	6.26726965433
5.44753277	5.48030160241	5.57035158321
5.4340699756	5.41189101999	5.32802393299
5.5594587805	5.37140288742	5.47820446901
5.40850348146	5.57570423121	5.60902894898
5.57154672366	5.57781285213	5.29242032059
5.34248181058	5.37629264742	5.72162104531
5.69493474769	5.42808035277	5.22598587829
5.3594676638	5.57318366798	5.62036439685
5.41650914576	5.41576514706	5.43160684412
5.70293803195	5.60459712493	5.46514135383
5.21498756341	5.40439865916	5.4837899183
5.62492654102	5.4130032091	5.59532263059
5.55796327436	5.570350144	5.26960971099
5.38697529213	5.42040877785	5.62003993053
5.55264560631	5.60407411485	5.42431896657
5.36625251019	5.40344247894	5.34322941053
5.56533133937	5.53820834388	5.68583538869
5.55596889068	5.3684314852	5.32365792564
5.14876128703	5.69165792758	5.39543397146
5.82885346043	5.35333476213	5.68048583892
5.27456311188	5.42015802709	5.3156111439
5.51631218888	5.57788936659	5.52427605966
29.125	29.0	29.125
-18.0002399223	-17.9229856737	-18.1252399223
15.9951925388	16.1760071631	16.1974467874
5.03555139402	4.73529913226	4.76411176973
3.44381363765	3.64349334468	3.81950949738
6.50114835088	6.44662452797	6.0322529496
5.43697382909	5.42417809689	5.69822862973
5.40237391535	5.41705562665	5.29242882291
5.38252502268	5.50497967652	5.59701970824
5.69845458834	5.36967608041	5.41618537585
5.24977756513	5.59896912031	5.4365836454
5.72523220772	5.53051765829	5.54703995346
5.35826279771	5.40203952081	5.42438560282
5.53975547995	5.55511854501	5.48452927453
5.3753630233	5.36174732598	5.47728939675
5.43893803457	5.69093414244	5.46888919717
5.63266255047	5.35459242862	5.34855320692
5.45491228938	5.29500136559	5.67550052346
5.45099602605	5.78009676018	5.45136659696
5.41886540787	5.39494657477	5.19402476756
5.68451783223	5.32497960676	5.82634465142
5.34600471512	5.63274324395	5.14221344492
5.54898282002	5.53462855566	5.7216369863
5.37600208288	5.26838758507	5.34303867015
5.56219875485	5.75666047202	5.50700528811
5.55522465181	5.21889123907	5.35462509712
5.3996172395	5.73843395794	5.79070543196
5.54910348153	5.35850309538	5.12672473882
29.0	29.125	29.0
-17.7979856737	-18.0002399223	-17.9229856737
15.9737529145	16.1201925388	16.0510071631
4.88173875656	4.70829714543	4.81255338086
3.72005173355	3.91750751054	3.69930796898
6.11457180777	6.10401286686	6.2236265148
5.65875265317	5.50205659292	5.67967242822
5.42154521703	5.44686570781	5.13953379057
5.40126558662	5.4197770692	5.62267827564
5.55937637503	5.61330307622	5.43409020422
5.38777636285	5.4266313587	5.36542850038
5.54309713737	5.51542573942	5.6632887582
5.56003843388	5.3723122847	5.32760769224
5.27936106917	5.69714726973	5.52593755163
5.62277832679	5.34982742306	5.34965479829
5.42109405742	5.42009611916	5.66426971307
5.46876046159	5.57875077257	5.33027049277
5.48416655929	5.416312832	5.64680305202
5.59474246688	5.47850103204	5.14984333059
5.26977966207	5.60659187002	5.81075308589
5.74487449711	5.39178033278	5.28083550544
5.22226879023	5.41668131091	5.64262924714
5.73956781575	5.69641603572	5.2856223512
5.35787558929	5.34257574609	5.60554162689
5.53452129517	5.54799950391	5.42639755737
5.5036018292	5.50153093952	5.46976753029
5.4864923047	5.36017400239	5.48310248201
5.49884410937	5.70160077393	5.47003423135
29.125	29.125	29.0
-18.0002399223	-18.0002399223	-17.9229856737
15.9951925388	16.1201925388	16.0510071631
4.91055139402	4.83329714543	4.81255338086
3.52106788624	3.71525326195	3.69930796898
6.55696297518	6.25045249116	6.2236265148
5.33897581593	5.32861498179	5.55467242822
5.33061399809	5.6443214848	5.34178803917
5.57869705949	5.28421812829	5.35123865135
5.54401770344	5.53386126456	5.68478606395
5.42702020417	5.50776647377	5.34878734768
5.52811450735	5.56093920883	5.37359543735
5.36821508441	5.40222482003	5.68398345952
5.571369694	5.5491054295	5.32109323794
5.42743634142	5.36441102627	5.5206018321
5.60132003936	5.69099978804	5.60358509889
5.40336177839	5.3540111269	5.2600575133
5.41351574309	5.54531347711	5.62193403794
